# Pulseq sequence file
# Created by PyPulseq

[VERSION]
major 1
minor 4
revision 2

[DEFINITIONS]
AdcRasterTime 1e-07 
BlockDurationRaster 1e-05 
GradientRasterTime 1e-05 
RadiofrequencyRasterTime 1e-06 
TotalDuration 73.68674 

# Format of blocks:
# NUM DUR RF  GX  GY  GZ  ADC  EXT
[BLOCKS]
   1 39165   0   0   0   0  0  1
   2  62   1   0   0   0  0  0
   3 110   0   0   0   0  0  0
   4  62   1   0   0   0  0  0
   5  15   0   0   0   0  0  0
   6 112   2   0   0   0  0  0
   7  15   0   0   0   0  0  0
   8  62   1   0   0   0  0  0
   9 270   0   0   0   0  0  0
  10  62   1   0   0   0  0  0
  11  15   0   0   0   0  0  0
  12 112   2   0   0   0  0  0
  13  15   0   0   0   0  0  0
  14  62   1   0   0   0  0  0
  15 270   0   0   0   0  0  0
  16  62   3   0   0   0  0  0
  17  15   0   0   0   0  0  0
  18 112   4   0   0   0  0  0
  19  15   0   0   0   0  0  0
  20  62   3   0   0   0  0  0
  21 270   0   0   0   0  0  0
  22  62   3   0   0   0  0  0
  23  15   0   0   0   0  0  0
  24 112   4   0   0   0  0  0
  25  15   0   0   0   0  0  0
  26  62   3   0   0   0  0  0
  27  60   0   0   0   0  0  0
  28 162   5   0   0   0  0  0
  29  15   0   0   0   0  0  0
  30 212   6   0   0   0  0  0
  31 720   0   0   0   1  0  0
  32 100   7   0   0   0  0  0
  33  80   0   0   0   0  1  0
  34  78   0   0   0   0  0  0
  35 100   8   0   0   0  0  0
  36  80   0   0   0   0  1  0
  37  78   0   0   0   0  0  0
  38 100   9   0   0   0  0  0
  39  80   0   0   0   0  1  0
  40  78   0   0   0   0  0  0
  41 100  10   0   0   0  0  0
  42  80   0   0   0   0  1  0
  43  78   0   0   0   0  0  0
  44 100  11   0   0   0  0  0
  45  80   0   0   0   0  1  0
  46  78   0   0   0   0  0  0
  47 100   9   0   0   0  0  0
  48  80   0   0   0   0  1  0
  49  78   0   0   0   0  0  0
  50 100  12   0   0   0  0  0
  51  80   0   0   0   0  1  0
  52  78   0   0   0   0  0  0
  53 100  13   0   0   0  0  0
  54  80   0   0   0   0  1  0
  55  78   0   0   0   0  0  0
  56 100  14   0   0   0  0  0
  57  80   0   0   0   0  1  0
  58  78   0   0   0   0  0  0
  59 100   7   0   0   0  0  0
  60  80   0   0   0   0  1  0
  61  78   0   0   0   0  0  0
  62 42987   0   0   0   0  0  0
  63 71514   0   0   0   0  0  2
  64 20012  15   0   0   0  0  0
  65 650   0   2   2   2  0  0
  66 4350   0   0   0   0  0  0
  67 20012  16   0   0   0  0  0
  68 650   0   2   2   2  0  0
  69 4350   0   0   0   0  0  0
  70 20012  17   0   0   0  0  0
  71 650   0   2   2   2  0  0
  72 100  18   0   0   0  0  0
  73  80   0   0   0   0  1  0
  74  78   0   0   0   0  0  0
  75 100  12   0   0   0  0  0
  76  80   0   0   0   0  1  0
  77  78   0   0   0   0  0  0
  78 100  19   0   0   0  0  0
  79  80   0   0   0   0  1  0
  80  78   0   0   0   0  0  0
  81 100  20   0   0   0  0  0
  82  80   0   0   0   0  1  0
  83  78   0   0   0   0  0  0
  84 100  21   0   0   0  0  0
  85  80   0   0   0   0  1  0
  86  78   0   0   0   0  0  0
  87 100  22   0   0   0  0  0
  88  80   0   0   0   0  1  0
  89  78   0   0   0   0  0  0
  90 100  18   0   0   0  0  0
  91  80   0   0   0   0  1  0
  92  78   0   0   0   0  0  0
  93 100  20   0   0   0  0  0
  94  80   0   0   0   0  1  0
  95  78   0   0   0   0  0  0
  96 100  23   0   0   0  0  0
  97  80   0   0   0   0  1  0
  98  78   0   0   0   0  0  0
  99 100  10   0   0   0  0  0
 100  80   0   0   0   0  1  0
 101  78   0   0   0   0  0  0
 102 43275   0   0   0   0  0  0
 103 71514   0   0   0   0  0  2
 104 20012  24   0   0   0  0  0
 105 650   0   2   2   2  0  0
 106 4350   0   0   0   0  0  0
 107 20012  25   0   0   0  0  0
 108 650   0   2   2   2  0  0
 109 4350   0   0   0   0  0  0
 110 20012  26   0   0   0  0  0
 111 650   0   2   2   2  0  0
 112 100  27   0   0   0  0  0
 113  80   0   0   0   0  1  0
 114  78   0   0   0   0  0  0
 115 100  21   0   0   0  0  0
 116  80   0   0   0   0  1  0
 117  78   0   0   0   0  0  0
 118 100  18   0   0   0  0  0
 119  80   0   0   0   0  1  0
 120  78   0   0   0   0  0  0
 121 100  28   0   0   0  0  0
 122  80   0   0   0   0  1  0
 123  78   0   0   0   0  0  0
 124 100  12   0   0   0  0  0
 125  80   0   0   0   0  1  0
 126  78   0   0   0   0  0  0
 127 100   9   0   0   0  0  0
 128  80   0   0   0   0  1  0
 129  78   0   0   0   0  0  0
 130 100  23   0   0   0  0  0
 131  80   0   0   0   0  1  0
 132  78   0   0   0   0  0  0
 133 100  21   0   0   0  0  0
 134  80   0   0   0   0  1  0
 135  78   0   0   0   0  0  0
 136 100  21   0   0   0  0  0
 137  80   0   0   0   0  1  0
 138  78   0   0   0   0  0  0
 139 100  23   0   0   0  0  0
 140  80   0   0   0   0  1  0
 141  78   0   0   0   0  0  0
 142 34436   0   0   0   0  0  0
 143 71514   0   0   0   0  0  2
 144 20012  29   0   0   0  0  0
 145 650   0   2   2   2  0  0
 146 4350   0   0   0   0  0  0
 147 20012  30   0   0   0  0  0
 148 650   0   2   2   2  0  0
 149 4350   0   0   0   0  0  0
 150 20012  31   0   0   0  0  0
 151 650   0   2   2   2  0  0
 152 100  10   0   0   0  0  0
 153  80   0   0   0   0  1  0
 154  78   0   0   0   0  0  0
 155 100  23   0   0   0  0  0
 156  80   0   0   0   0  1  0
 157  78   0   0   0   0  0  0
 158 100  23   0   0   0  0  0
 159  80   0   0   0   0  1  0
 160  78   0   0   0   0  0  0
 161 100  18   0   0   0  0  0
 162  80   0   0   0   0  1  0
 163  78   0   0   0   0  0  0
 164 100   8   0   0   0  0  0
 165  80   0   0   0   0  1  0
 166  78   0   0   0   0  0  0
 167 100  23   0   0   0  0  0
 168  80   0   0   0   0  1  0
 169  78   0   0   0   0  0  0
 170 100  23   0   0   0  0  0
 171  80   0   0   0   0  1  0
 172  78   0   0   0   0  0  0
 173 100  27   0   0   0  0  0
 174  80   0   0   0   0  1  0
 175  78   0   0   0   0  0  0
 176 100  23   0   0   0  0  0
 177  80   0   0   0   0  1  0
 178  78   0   0   0   0  0  0
 179 100  10   0   0   0  0  0
 180  80   0   0   0   0  1  0
 181  78   0   0   0   0  0  0
 182 15493   0   0   0   0  0  0
 183 71514   0   0   0   0  0  2
 184 20012  32   0   0   0  0  0
 185 650   0   2   2   2  0  0
 186 4350   0   0   0   0  0  0
 187 20012  33   0   0   0  0  0
 188 650   0   2   2   2  0  0
 189 4350   0   0   0   0  0  0
 190 20012  34   0   0   0  0  0
 191 650   0   2   2   2  0  0
 192 100  18   0   0   0  0  0
 193  80   0   0   0   0  1  0
 194  78   0   0   0   0  0  0
 195 100  21   0   0   0  0  0
 196  80   0   0   0   0  1  0
 197  78   0   0   0   0  0  0
 198 100  35   0   0   0  0  0
 199  80   0   0   0   0  1  0
 200  78   0   0   0   0  0  0
 201 100  21   0   0   0  0  0
 202  80   0   0   0   0  1  0
 203  78   0   0   0   0  0  0
 204 100  22   0   0   0  0  0
 205  80   0   0   0   0  1  0
 206  78   0   0   0   0  0  0
 207 100  10   0   0   0  0  0
 208  80   0   0   0   0  1  0
 209  78   0   0   0   0  0  0
 210 100   8   0   0   0  0  0
 211  80   0   0   0   0  1  0
 212  78   0   0   0   0  0  0
 213 100  36   0   0   0  0  0
 214  80   0   0   0   0  1  0
 215  78   0   0   0   0  0  0
 216 100  28   0   0   0  0  0
 217  80   0   0   0   0  1  0
 218  78   0   0   0   0  0  0
 219 100  14   0   0   0  0  0
 220  80   0   0   0   0  1  0
 221  78   0   0   0   0  0  0
 222 15005   0   0   0   0  0  0
 223 71514   0   0   0   0  0  2
 224 20012  37   0   0   0  0  0
 225 650   0   2   2   2  0  0
 226 4350   0   0   0   0  0  0
 227 20012  38   0   0   0  0  0
 228 650   0   2   2   2  0  0
 229 4350   0   0   0   0  0  0
 230 20012  39   0   0   0  0  0
 231 650   0   2   2   2  0  0
 232 100  28   0   0   0  0  0
 233  80   0   0   0   0  1  0
 234  78   0   0   0   0  0  0
 235 100  10   0   0   0  0  0
 236  80   0   0   0   0  1  0
 237  78   0   0   0   0  0  0
 238 100  22   0   0   0  0  0
 239  80   0   0   0   0  1  0
 240  78   0   0   0   0  0  0
 241 100  40   0   0   0  0  0
 242  80   0   0   0   0  1  0
 243  78   0   0   0   0  0  0
 244 100  10   0   0   0  0  0
 245  80   0   0   0   0  1  0
 246  78   0   0   0   0  0  0
 247 100  13   0   0   0  0  0
 248  80   0   0   0   0  1  0
 249  78   0   0   0   0  0  0
 250 100   7   0   0   0  0  0
 251  80   0   0   0   0  1  0
 252  78   0   0   0   0  0  0
 253 100  40   0   0   0  0  0
 254  80   0   0   0   0  1  0
 255  78   0   0   0   0  0  0
 256 100  28   0   0   0  0  0
 257  80   0   0   0   0  1  0
 258  78   0   0   0   0  0  0
 259 100  20   0   0   0  0  0
 260  80   0   0   0   0  1  0
 261  78   0   0   0   0  0  0
 262 73982   0   0   0   0  0  0
 263 38365   0   0   0   0  0  3
 264  62   1   0   0   0  0  0
 265 210   0   0   0   0  0  0
 266  62   1   0   0   0  0  0
 267  15   0   0   0   0  0  0
 268 112   2   0   0   0  0  0
 269  15   0   0   0   0  0  0
 270  62   1   0   0   0  0  0
 271 470   0   0   0   0  0  0
 272  62   1   0   0   0  0  0
 273  15   0   0   0   0  0  0
 274 112   2   0   0   0  0  0
 275  15   0   0   0   0  0  0
 276  62   1   0   0   0  0  0
 277 470   0   0   0   0  0  0
 278  62   3   0   0   0  0  0
 279  15   0   0   0   0  0  0
 280 112   4   0   0   0  0  0
 281  15   0   0   0   0  0  0
 282  62   3   0   0   0  0  0
 283 470   0   0   0   0  0  0
 284  62   3   0   0   0  0  0
 285  15   0   0   0   0  0  0
 286 112   4   0   0   0  0  0
 287  15   0   0   0   0  0  0
 288  62   3   0   0   0  0  0
 289 160   0   0   0   0  0  0
 290 162   5   0   0   0  0  0
 291  15   0   0   0   0  0  0
 292 212   6   0   0   0  0  0
 293 720   0   0   0   1  0  0
 294 100  18   0   0   0  0  0
 295  80   0   0   0   0  1  0
 296  78   0   0   0   0  0  0
 297 100  35   0   0   0  0  0
 298  80   0   0   0   0  1  0
 299  78   0   0   0   0  0  0
 300 100  35   0   0   0  0  0
 301  80   0   0   0   0  1  0
 302  78   0   0   0   0  0  0
 303 100  28   0   0   0  0  0
 304  80   0   0   0   0  1  0
 305  78   0   0   0   0  0  0
 306 100  10   0   0   0  0  0
 307  80   0   0   0   0  1  0
 308  78   0   0   0   0  0  0
 309 100  10   0   0   0  0  0
 310  80   0   0   0   0  1  0
 311  78   0   0   0   0  0  0
[RF]
1          500 1 2 3 100 0 0
2          500 1 2 4 100 0 1.5708
3          500 1 2 3 100 0 3.14159
4          500 1 2 4 100 0 4.71239
5          500 1 2 5 100 0 0
6          500 1 6 7 100 0 0
7      582.393 8 9 0 180 0 0
8      388.262 8 9 0 180 0 0
9      471.461 8 9 0 180 0 0
10      610.126 8 9 0 180 0 0
11      194.131 8 9 0 180 0 0
12      138.665 8 9 0 180 0 0
13      360.529 8 9 0 180 0 0
14      499.194 8 9 0 180 0 0
15      52.7942 1 2 10 100 255.456 0
16      52.7942 1 2 10 100 255.456 0.573027
17      52.7942 1 2 10 100 255.456 1.14605
18      665.592 8 9 0 180 0 0
19      166.398 8 9 0 180 0 0
20      221.864 8 9 0 180 0 0
21       554.66 8 9 0 180 0 0
22      332.796 8 9 0 180 0 0
23      637.859 8 9 0 180 0 0
24      119.213 1 2 10 100 255.456 0
25      119.213 1 2 10 100 255.456 0.573027
26      119.213 1 2 10 100 255.456 1.14605
27      415.995 8 9 0 180 0 0
28      526.927 8 9 0 180 0 0
29      127.302 1 2 10 100 255.456 0
30      127.302 1 2 10 100 255.456 0.573027
31      127.302 1 2 10 100 255.456 1.14605
32      105.588 1 2 10 100 255.456 0
33      105.588 1 2 10 100 255.456 0.573027
34      105.588 1 2 10 100 255.456 1.14605
35      443.728 8 9 0 180 0 0
36      249.597 8 9 0 180 0 0
37      59.6064 1 2 10 100 255.456 0
38      59.6064 1 2 10 100 255.456 0.573027
39      59.6064 1 2 10 100 255.456 1.14605
40       277.33 8 9 0 180 0 0
41      152.848 1 2 10 100 255.456 0
42      152.848 1 2 10 100 255.456 0.573027
43      152.848 1 2 10 100 255.456 1.14605
44      305.063 8 9 0 180 0 0
45      93.2414 1 2 10 100 255.456 0
46      93.2414 1 2 10 100 255.456 0.573027
47      93.2414 1 2 10 100 255.456 1.14605
48      206.068 1 2 10 100 255.456 0
49      206.068 1 2 10 100 255.456 0.573027
50      206.068 1 2 10 100 255.456 1.14605
51       54.923 1 2 10 100 255.456 0
52       54.923 1 2 10 100 255.456 0.573027
53       54.923 1 2 10 100 255.456 1.14605
54      157.105 1 2 10 100 255.456 0
55      157.105 1 2 10 100 255.456 0.573027
56      157.105 1 2 10 100 255.456 1.14605
57      186.909 1 2 10 100 255.456 0
58      186.909 1 2 10 100 255.456 0.573027
59      186.909 1 2 10 100 255.456 1.14605
60       72.805 1 2 10 100 255.456 0
61       72.805 1 2 10 100 255.456 0.573027
62       72.805 1 2 10 100 255.456 1.14605
63      63.0125 1 2 10 100 255.456 0
64      63.0125 1 2 10 100 255.456 0.573027
65      63.0125 1 2 10 100 255.456 1.14605
66      171.156 1 2 10 100 255.456 0
67      171.156 1 2 10 100 255.456 0.573027
68      171.156 1 2 10 100 255.456 1.14605
69      155.402 1 2 10 100 255.456 0
70      155.402 1 2 10 100 255.456 0.573027
71      155.402 1 2 10 100 255.456 1.14605
72      89.4096 1 2 10 100 255.456 0
73      89.4096 1 2 10 100 255.456 0.573027
74      89.4096 1 2 10 100 255.456 1.14605
75      205.642 1 2 10 100 255.456 0
76      205.642 1 2 10 100 255.456 0.573027
77      205.642 1 2 10 100 255.456 1.14605
78      99.2021 1 2 10 100 255.456 0
79      99.2021 1 2 10 100 255.456 0.573027
80      99.2021 1 2 10 100 255.456 1.14605
81      166.472 1 2 10 100 255.456 0
82      166.472 1 2 10 100 255.456 0.573027
83      166.472 1 2 10 100 255.456 1.14605
84       128.58 1 2 10 100 255.456 0
85       128.58 1 2 10 100 255.456 0.573027
86       128.58 1 2 10 100 255.456 1.14605
87      163.918 1 2 10 100 255.456 0
88      163.918 1 2 10 100 255.456 0.573027
89      163.918 1 2 10 100 255.456 1.14605
90       170.73 1 2 10 100 255.456 0
91       170.73 1 2 10 100 255.456 0.573027
92       170.73 1 2 10 100 255.456 1.14605
93      29.8032 1 2 10 100 255.456 0
94      29.8032 1 2 10 100 255.456 0.573027
95      29.8032 1 2 10 100 255.456 1.14605
96      43.8533 1 2 10 100 255.456 0
97      43.8533 1 2 10 100 255.456 0.573027
98      43.8533 1 2 10 100 255.456 1.14605
99      34.4866 1 2 10 100 255.456 0
100      34.4866 1 2 10 100 255.456 0.573027
101      34.4866 1 2 10 100 255.456 1.14605
102      68.1216 1 2 10 100 255.456 0
103      68.1216 1 2 10 100 255.456 0.573027
104      68.1216 1 2 10 100 255.456 1.14605
105      112.401 1 2 10 100 255.456 0
106      112.401 1 2 10 100 255.456 0.573027
107      112.401 1 2 10 100 255.456 1.14605
108       201.81 1 2 10 100 255.456 0
109       201.81 1 2 10 100 255.456 0.573027
110       201.81 1 2 10 100 255.456 1.14605

# Format of trapezoid gradients:
# id amplitude rise flat fall delay
# ..      Hz/m   us   us   us    us
[TRAP]
 1       808944 600 6000 600   0
 2  1.29431e+06 1000 4500 1000   0

# Format of ADC events:
# id num dwell delay freq phase
# ..  ..    ns    us   Hz   rad
[ADC]
1 1 10000 780 0 0

# Format of extension lists:
# id type ref next_id
# next_id of 0 terminates the list
# Extension list is followed by extension specifications
[EXTENSIONS]
1 1 1 0
2 1 2 0
3 1 3 0
4 1 4 0
5 1 5 0
6 1 6 0
7 1 7 0

# Extension specification for digital output and input triggers:
# id type channel delay (us) duration (us)
extension TRIGGERS 1
1 2 1 0 391650
2 2 1 0 715140
3 2 1 0 383650
4 2 1 0 371650
5 2 1 0 355650
6 2 1 0 331650
7 2 1 0 299650

# Sequence Shapes
[SHAPES]

shape_id 1
num_samples 2
1
1

shape_id 2
num_samples 2
0
0

shape_id 3
num_samples 2
0
500

shape_id 4
num_samples 2
0
1000

shape_id 5
num_samples 2
0
1500

shape_id 6
num_samples 2
0.5
0.5

shape_id 7
num_samples 2
0
2000

shape_id 8
num_samples 800
4.82518664e-09
1.30562659e-07
6.0556625e-07
1.66416898e-06
3.54109481e-06
6.47067611e-06
1.06860654e-05
1.64184431e-05
2.38962225e-05
3.33442544e-05
4.49830324e-05
5.90279009e-05
7.56882673e-05
9.51668209e-05
0.000117658758
0.00014335102
0.000172421537
0.00020503849
0.000241359585
0.000281531341
0.000325688404
0.00037395287
0.000426433637
0.000483225776
0.000544409929
0.00061005173
0.000680201253
0.000754892495
0.00083414288
0.000917952804
0.0010063052
0.00109916516
0.00119647956
0.00129817676
0.00140416629
0.00151433863
0.00162856503
0.00174669726
0.00186856761
0.00199398869
0.00212275347
0.00225463526
0.00238938778
0.00252674522
0.00266642241
0.002808115
0.00295149969
0.0030962345
0.00324195912
0.00338829525
0.00353484704
0.00368120154
0.00382692923
0.00397158452
0.00411470641
0.00425581912
0.00439443274
0.004530044
0.00466213705
0.00479018423
0.00491364696
0.00503197664
0.00514461558
0.00525099795
0.00535055083
0.0054426952
0.0055268471
0.00560241866
0.00566881928
0.0057254568
0.00577173871
0.00580707334
0.00583087113
0.00584254591
0.00584151619
0.00582720645
0.00579904848
0.00575648271
0.00569895958
0.0056259409
0.00553690119
0.00543132909
0.00530872871
0.00516862105
0.00501054531
0.00483406033
0.00463874591
0.00442420418
0.00419006097
0.00393596708
0.00366159967
0.00336666348
0.00305089218
0.00271404953
0.0023559307
0.00197636339
0.00157520901
0.00115236384
0.000707760066
0.000241366884
0.000246808519
0.000756719989
0.00128828149
0.00184136621
0.00241580576
0.00301138942
0.00362786338
0.00426493009
0.00492224771
0.00559942951
0.00629604343
0.00701161166
0.00774561029
0.00849746903
0.00926657103
0.0100522527
0.0108538037
0.0116704668
0.0125014383
0.0133458678
0.0142028586
0.0150714681
0.0159507081
0.0168395453
0.0177369018
0.0186416557
0.019552642
0.0204686533
0.0213884406
0.0223107144
0.0232341454
0.0241573661
0.0250789718
0.0259975217
0.0269115404
0.0278195195
0.0287199189
0.0296111684
0.0304916694
0.0313597967
0.0322139003
0.0330523073
0.0338733237
0.0346752366
0.0354563164
0.0362148185
0.0369489861
0.0376570521
0.0383372414
0.0389877736
0.0396068652
0.0401927323
0.0407435929
0.0412576698
0.0417331927
0.0421684016
0.0425615489
0.0429109027
0.0432147488
0.0434713943
0.04367917
0.0438364332
0.043941571
0.0439930024
0.043989182
0.0439286023
0.043809797
0.0436313435
0.043391866
0.0430900384
0.0427245869
0.0422942933
0.0417979973
0.0412345996
0.0406030643
0.0399024223
0.0391317731
0.0382902884
0.0373772136
0.0363918713
0.0353336633
0.0342020731
0.0329966683
0.0317171029
0.0303631194
0.0289345512
0.0274313245
0.0258534602
0.024201076
0.0224743882
0.0206737133
0.0187994696
0.0168521791
0.0148324682
0.01274107
0.0105788245
0.00834668052
0.00604569612
0.00367703979
0.0012419911
0.00125805871
0.00382160616
0.00644703521
0.00913261697
0.0118765096
0.0146767584
0.0175312958
0.0204379418
0.0233944044
0.0263982798
0.0294470539
0.0325381021
0.0356686912
0.03883598
0.0420370208
0.0452687605
0.0485280427
0.0518116088
0.0551161001
0.0584380599
0.0617739354
0.0651200799
0.0684727557
0.0718281357
0.0751823071
0.0785312733
0.0818709576
0.0851972056
0.0885057888
0.0917924077
0.0950526955
0.0982822214
0.101476494
0.104630966
0.107741038
0.11080206
0.11380934
0.116758145
0.119643705
0.122461219
0.12520586
0.127872778
0.130457106
0.132953962
0.135358457
0.137665699
0.139870797
0.141968868
0.143955039
0.145824455
0.147572281
0.149193712
0.150683973
0.152038328
0.153252082
0.154320591
0.155239261
0.156003559
0.156609016
0.157051231
0.157325877
0.157428708
0.157355563
0.157102371
0.156665154
0.156040038
0.155223251
0.154211134
0.153000141
0.151586847
0.149967954
0.148140289
0.146100818
0.143846643
0.14137501
0.138683311
0.135769093
0.132630055
0.129264059
0.125669129
0.121843456
0.117785403
0.113493507
0.108966483
0.104203227
0.0992028172
0.0939645214
0.088487795
0.0827722857
0.0768178358
0.0706244837
0.0641924668
0.0575222224
0.05061439
0.0434698124
0.0360895373
0.0284748178
0.0206271139
0.0125480929
0.00423962961
0.00429619275
0.0130570831
0.0220405421
0.0312438631
0.0406641319
0.0502982282
0.0601428262
0.0701943958
0.080449204
0.0909033165
0.101552599
0.112392721
0.123419155
0.134627182
0.14601189
0.157568184
0.169290779
0.181174213
0.193212844
0.205400857
0.217732264
0.230200912
0.242800485
0.255524511
0.26836636
0.281319257
0.294376282
0.307530373
0.320774339
0.334100855
0.347502479
0.360971645
0.374500681
0.388081805
0.401707137
0.415368705
0.429058448
0.442768222
0.456489814
0.470214937
0.483935249
0.497642349
0.511327791
0.524983089
0.538599721
0.552169141
0.565682784
0.579132071
0.592508421
0.605803252
0.619007996
0.632114099
0.645113031
0.657996297
0.670755439
0.683382045
0.695867758
0.708204281
0.720383385
0.732396918
0.744236808
0.755895076
0.767363837
0.778635311
0.789701827
0.800555834
0.811189903
0.821596735
0.831769172
0.841700196
0.851382939
0.860810692
0.869976905
0.878875199
0.887499366
0.895843378
0.903901393
0.91166776
0.919137019
0.926303915
0.933163396
0.939710619
0.945940956
0.951849997
0.957433554
0.962687665
0.967608598
0.972192855
0.976437172
0.980338527
0.983894138
0.987101468
0.989958229
0.992462379
0.99461213
0.996405943
0.997842536
0.998920882
0.999640208
1
1
0.999640208
0.998920882
0.997842536
0.996405943
0.99461213
0.992462379
0.989958229
0.987101468
0.983894138
0.980338527
0.976437172
0.972192855
0.967608598
0.962687665
0.957433554
0.951849997
0.945940956
0.939710619
0.933163396
0.926303915
0.919137019
0.91166776
0.903901393
0.895843378
0.887499366
0.878875199
0.869976905
0.860810692
0.851382939
0.841700196
0.831769172
0.821596735
0.811189903
0.800555834
0.789701827
0.778635311
0.767363837
0.755895076
0.744236808
0.732396918
0.720383385
0.708204281
0.695867758
0.683382045
0.670755439
0.657996297
0.645113031
0.632114099
0.619007996
0.605803252
0.592508421
0.579132071
0.565682784
0.552169141
0.538599721
0.524983089
0.511327791
0.497642349
0.483935249
0.470214937
0.456489814
0.442768222
0.429058448
0.415368705
0.401707137
0.388081805
0.374500681
0.360971645
0.347502479
0.334100855
0.320774339
0.307530373
0.294376282
0.281319257
0.26836636
0.255524511
0.242800485
0.230200912
0.217732264
0.205400857
0.193212844
0.181174213
0.169290779
0.157568184
0.14601189
0.134627182
0.123419155
0.112392721
0.101552599
0.0909033165
0.080449204
0.0701943958
0.0601428262
0.0502982282
0.0406641319
0.0312438631
0.0220405421
0.0130570831
0.00429619275
0.00423962961
0.0125480929
0.0206271139
0.0284748178
0.0360895373
0.0434698124
0.05061439
0.0575222224
0.0641924668
0.0706244837
0.0768178358
0.0827722857
0.088487795
0.0939645214
0.0992028172
0.104203227
0.108966483
0.113493507
0.117785403
0.121843456
0.125669129
0.129264059
0.132630055
0.135769093
0.138683311
0.14137501
0.143846643
0.146100818
0.148140289
0.149967954
0.151586847
0.153000141
0.154211134
0.155223251
0.156040038
0.156665154
0.157102371
0.157355563
0.157428708
0.157325877
0.157051231
0.156609016
0.156003559
0.155239261
0.154320591
0.153252082
0.152038328
0.150683973
0.149193712
0.147572281
0.145824455
0.143955039
0.141968868
0.139870797
0.137665699
0.135358457
0.132953962
0.130457106
0.127872778
0.12520586
0.122461219
0.119643705
0.116758145
0.11380934
0.11080206
0.107741038
0.104630966
0.101476494
0.0982822214
0.0950526955
0.0917924077
0.0885057888
0.0851972056
0.0818709576
0.0785312733
0.0751823071
0.0718281357
0.0684727557
0.0651200799
0.0617739354
0.0584380599
0.0551161001
0.0518116088
0.0485280427
0.0452687605
0.0420370208
0.03883598
0.0356686912
0.0325381021
0.0294470539
0.0263982798
0.0233944044
0.0204379418
0.0175312958
0.0146767584
0.0118765096
0.00913261697
0.00644703521
0.00382160616
0.00125805871
0.0012419911
0.00367703979
0.00604569612
0.00834668052
0.0105788245
0.01274107
0.0148324682
0.0168521791
0.0187994696
0.0206737133
0.0224743882
0.024201076
0.0258534602
0.0274313245
0.0289345512
0.0303631194
0.0317171029
0.0329966683
0.0342020731
0.0353336633
0.0363918713
0.0373772136
0.0382902884
0.0391317731
0.0399024223
0.0406030643
0.0412345996
0.0417979973
0.0422942933
0.0427245869
0.0430900384
0.043391866
0.0436313435
0.043809797
0.0439286023
0.043989182
0.0439930024
0.043941571
0.0438364332
0.04367917
0.0434713943
0.0432147488
0.0429109027
0.0425615489
0.0421684016
0.0417331927
0.0412576698
0.0407435929
0.0401927323
0.0396068652
0.0389877736
0.0383372414
0.0376570521
0.0369489861
0.0362148185
0.0354563164
0.0346752366
0.0338733237
0.0330523073
0.0322139003
0.0313597967
0.0304916694
0.0296111684
0.0287199189
0.0278195195
0.0269115404
0.0259975217
0.0250789718
0.0241573661
0.0232341454
0.0223107144
0.0213884406
0.0204686533
0.019552642
0.0186416557
0.0177369018
0.0168395453
0.0159507081
0.0150714681
0.0142028586
0.0133458678
0.0125014383
0.0116704668
0.0108538037
0.0100522527
0.00926657103
0.00849746903
0.00774561029
0.00701161166
0.00629604343
0.00559942951
0.00492224771
0.00426493009
0.00362786338
0.00301138942
0.00241580576
0.00184136621
0.00128828149
0.000756719989
0.000246808519
0.000241366884
0.000707760066
0.00115236384
0.00157520901
0.00197636339
0.0023559307
0.00271404953
0.00305089218
0.00336666348
0.00366159967
0.00393596708
0.00419006097
0.00442420418
0.00463874591
0.00483406033
0.00501054531
0.00516862105
0.00530872871
0.00543132909
0.00553690119
0.0056259409
0.00569895958
0.00575648271
0.00579904848
0.00582720645
0.00584151619
0.00584254591
0.00583087113
0.00580707334
0.00577173871
0.0057254568
0.00566881928
0.00560241866
0.0055268471
0.0054426952
0.00535055083
0.00525099795
0.00514461558
0.00503197664
0.00491364696
0.00479018423
0.00466213705
0.004530044
0.00439443274
0.00425581912
0.00411470641
0.00397158452
0.00382692923
0.00368120154
0.00353484704
0.00338829525
0.00324195912
0.0030962345
0.00295149969
0.002808115
0.00266642241
0.00252674522
0.00238938778
0.00225463526
0.00212275347
0.00199398869
0.00186856761
0.00174669726
0.00162856503
0.00151433863
0.00140416629
0.00129817676
0.00119647956
0.00109916516
0.0010063052
0.000917952804
0.00083414288
0.000754892495
0.000680201253
0.00061005173
0.000544409929
0.000483225776
0.000426433637
0.00037395287
0.000325688404
0.000281531341
0.000241359585
0.00020503849
0.000172421537
0.00014335102
0.000117658758
9.51668209e-05
7.56882673e-05
5.90279009e-05
4.49830324e-05
3.33442544e-05
2.38962225e-05
1.64184431e-05
1.06860654e-05
6.47067611e-06
3.54109481e-06
1.66416898e-06
6.0556625e-07
1.30562659e-07
4.82518664e-09

shape_id 9
num_samples 800
0.5
0
0
97
-0.5
0
0
97
0.5
0
0
97
-0.5
0
0
197
0.5
0
0
97
-0.5
0
0
97
0.5
0
0
97

shape_id 10
num_samples 2
0
200000


[SIGNATURE]
# This is the hash of the Pulseq file, calculated right before the [SIGNATURE] section was added
# It can be reproduced/verified with md5sum if the file trimmed to the position right above [SIGNATURE]
# The new line character preceding [SIGNATURE] BELONGS to the signature (and needs to be stripped away for recalculating/verification)
Type md5
Hash 29b7719414773c9172685197d5407427
