# Pulseq sequence file
# Created by PyPulseq

[VERSION]
major 1
minor 4
revision 2

[DEFINITIONS]
AdcRasterTime 1e-07 
BlockDurationRaster 1e-05 
FOV 0.08 0.08 0.08 
GradientRasterTime 1e-05 
Name phantom_girf_v1_4av 
RadiofrequencyRasterTime 1e-06 
TotalDuration 1080 

# Format of blocks:
# NUM DUR RF  GX  GY  GZ  ADC  EXT
[BLOCKS]
    1 183   0   1   0   0  0  0
    2 632   1   2   0   0  0  0
    3 183   0   1   0   0  0  0
    4 10000   0   3   0   0  1  0
    5  38   0   4   0   0  0  0
    6 38964   0   0   0   0  0  0
    7 183   0   1   0   0  0  0
    8 632   2   2   0   0  0  0
    9 183   0   1   0   0  0  0
   10 10000   0   3   0   0  2  0
   11  38   0   4   0   0  0  0
   12 38964   0   0   0   0  0  0
   13 183   0   1   0   0  0  0
   14 632   3   2   0   0  0  0
   15 183   0   1   0   0  0  0
   16 10000   0   3   0   0  3  0
   17  38   0   4   0   0  0  0
   18 38964   0   0   0   0  0  0
   19 183   0   1   0   0  0  0
   20 632   4   2   0   0  0  0
   21 183   0   1   0   0  0  0
   22 10000   0   3   0   0  4  0
   23  38   0   4   0   0  0  0
   24 38964   0   0   0   0  0  0
   25 183   0   1   0   0  0  0
   26 632   5   2   0   0  0  0
   27 183   0   1   0   0  0  0
   28 10000   0   3   0   0  5  0
   29  38   0   4   0   0  0  0
   30 38964   0   0   0   0  0  0
   31 183   0   1   0   0  0  0
   32 632   6   2   0   0  0  0
   33 183   0   1   0   0  0  0
   34 10000   0   0   0   0  6  0
   35  38   0   5   0   0  0  0
   36 38964   0   0   0   0  0  0
   37 183   0   1   0   0  0  0
   38 632   7   2   0   0  0  0
   39 183   0   1   0   0  0  0
   40 10000   0   0   0   0  7  0
   41  38   0   5   0   0  0  0
   42 38964   0   0   0   0  0  0
   43 183   0   1   0   0  0  0
   44 632   8   2   0   0  0  0
   45 183   0   1   0   0  0  0
   46 10000   0   0   0   0  8  0
   47  38   0   5   0   0  0  0
   48 38964   0   0   0   0  0  0
   49 183   0   1   0   0  0  0
   50 632   9   2   0   0  0  0
   51 183   0   1   0   0  0  0
   52 10000   0   0   0   0  9  0
   53  38   0   5   0   0  0  0
   54 38964   0   0   0   0  0  0
   55 183   0   1   0   0  0  0
   56 632  10   2   0   0  0  0
   57 183   0   1   0   0  0  0
   58 10000   0   0   0   0  2  0
   59  38   0   5   0   0  0  0
   60 38964   0   0   0   0  0  0
   61 183   0   1   0   0  0  0
   62 632  11   2   0   0  0  0
   63 183   0   1   0   0  0  0
   64 10000   0   6   0   0 10  0
   65  38   0   7   0   0  0  0
   66 38964   0   0   0   0  0  0
   67 183   0   1   0   0  0  0
   68 632  12   2   0   0  0  0
   69 183   0   1   0   0  0  0
   70 10000   0   6   0   0 11  0
   71  38   0   7   0   0  0  0
   72 38964   0   0   0   0  0  0
   73 183   0   1   0   0  0  0
   74 632  13   2   0   0  0  0
   75 183   0   1   0   0  0  0
   76 10000   0   6   0   0  9  0
   77  38   0   7   0   0  0  0
   78 38964   0   0   0   0  0  0
   79 183   0   1   0   0  0  0
   80 632   4   2   0   0  0  0
   81 183   0   1   0   0  0  0
   82 10000   0   6   0   0  4  0
   83  38   0   7   0   0  0  0
   84 38964   0   0   0   0  0  0
   85 183   0   1   0   0  0  0
   86 632  14   2   0   0  0  0
   87 183   0   1   0   0  0  0
   88 10000   0   6   0   0  7  0
   89  38   0   7   0   0  0  0
   90 38964   0   0   0   0  0  0
   91 183   0   1   0   0  0  0
   92 632  15   2   0   0  0  0
   93 183   0   1   0   0  0  0
   94 10000   0   8   0   0 12  0
   95  38   0   9   0   0  0  0
   96 38964   0   0   0   0  0  0
   97 183   0   1   0   0  0  0
   98 632  16   2   0   0  0  0
   99 183   0   1   0   0  0  0
  100 10000   0   8   0   0  5  0
  101  38   0   9   0   0  0  0
  102 38964   0   0   0   0  0  0
  103 183   0   1   0   0  0  0
  104 632   8   2   0   0  0  0
  105 183   0   1   0   0  0  0
  106 10000   0   8   0   0  8  0
  107  38   0   9   0   0  0  0
  108 38964   0   0   0   0  0  0
  109 183   0   1   0   0  0  0
  110 632  17   2   0   0  0  0
  111 183   0   1   0   0  0  0
  112 10000   0   8   0   0  3  0
  113  38   0   9   0   0  0  0
  114 38964   0   0   0   0  0  0
  115 183   0   1   0   0  0  0
  116 632  18   2   0   0  0  0
  117 183   0   1   0   0  0  0
  118 10000   0   8   0   0 11  0
  119  38   0   9   0   0  0  0
  120 38964   0   0   0   0  0  0
  121 183   0   1   0   0  0  0
  122 632  19   2   0   0  0  0
  123 183   0   1   0   0  0  0
  124 10000   0   0   0   0 13  0
  125  38   0   5   0   0  0  0
  126 38964   0   0   0   0  0  0
  127 183   0   1   0   0  0  0
  128 632  12   2   0   0  0  0
  129 183   0   1   0   0  0  0
  130 10000   0   0   0   0 11  0
  131  38   0   5   0   0  0  0
  132 38964   0   0   0   0  0  0
  133 183   0   1   0   0  0  0
  134 632   3   2   0   0  0  0
  135 183   0   1   0   0  0  0
  136 10000   0   0   0   0  3  0
  137  38   0   5   0   0  0  0
  138 38964   0   0   0   0  0  0
  139 183   0   1   0   0  0  0
  140 632  20   2   0   0  0  0
  141 183   0   1   0   0  0  0
  142 10000   0   0   0   0  8  0
  143  38   0   5   0   0  0  0
  144 38964   0   0   0   0  0  0
  145 183   0   1   0   0  0  0
  146 632   5   2   0   0  0  0
  147 183   0   1   0   0  0  0
  148 10000   0   0   0   0  5  0
  149  38   0   5   0   0  0  0
  150 38964   0   0   0   0  0  0
  151 183   0   1   0   0  0  0
  152 632  15   2   0   0  0  0
  153 183   0   1   0   0  0  0
  154 10000   0  10   0   0 12  0
  155  38   0  11   0   0  0  0
  156 38964   0   0   0   0  0  0
  157 183   0   1   0   0  0  0
  158 632   7   2   0   0  0  0
  159 183   0   1   0   0  0  0
  160 10000   0  10   0   0  7  0
  161  38   0  11   0   0  0  0
  162 38964   0   0   0   0  0  0
  163 183   0   1   0   0  0  0
  164 632  21   2   0   0  0  0
  165 183   0   1   0   0  0  0
  166 10000   0  10   0   0  4  0
  167  38   0  11   0   0  0  0
  168 38964   0   0   0   0  0  0
  169 183   0   1   0   0  0  0
  170 632   9   2   0   0  0  0
  171 183   0   1   0   0  0  0
  172 10000   0  10   0   0  9  0
  173  38   0  11   0   0  0  0
  174 38964   0   0   0   0  0  0
  175 183   0   1   0   0  0  0
  176 632  18   2   0   0  0  0
  177 183   0   1   0   0  0  0
  178 10000   0  10   0   0 11  0
  179  38   0  11   0   0  0  0
  180 38964   0   0   0   0  0  0
  181 183   0   1   0   0  0  0
  182 632  11   2   0   0  0  0
  183 183   0   1   0   0  0  0
  184 10000   0  12   0   0 10  0
  185  38   0   9   0   0  0  0
  186 38964   0   0   0   0  0  0
  187 183   0   1   0   0  0  0
  188 632   2   2   0   0  0  0
  189 183   0   1   0   0  0  0
  190 10000   0  12   0   0  2  0
  191  38   0   9   0   0  0  0
  192 38964   0   0   0   0  0  0
  193 183   0   1   0   0  0  0
  194 632  13   2   0   0  0  0
  195 183   0   1   0   0  0  0
  196 10000   0  12   0   0  9  0
  197  38   0   9   0   0  0  0
  198 38964   0   0   0   0  0  0
  199 183   0   1   0   0  0  0
  200 632  20   2   0   0  0  0
  201 183   0   1   0   0  0  0
  202 10000   0  12   0   0  8  0
  203  38   0   9   0   0  0  0
  204 38964   0   0   0   0  0  0
  205 183   0   1   0   0  0  0
  206 632  14   2   0   0  0  0
  207 183   0   1   0   0  0  0
  208 10000   0  12   0   0  7  0
  209  38   0   9   0   0  0  0
  210 38964   0   0   0   0  0  0
  211 183   0   1   0   0  0  0
  212 632   6   2   0   0  0  0
  213 183   0   1   0   0  0  0
  214 10000   0   0   0   0  6  0
  215  38   0   5   0   0  0  0
  216 38964   0   0   0   0  0  0
  217 183   0   1   0   0  0  0
  218 632  16   2   0   0  0  0
  219 183   0   1   0   0  0  0
  220 10000   0   0   0   0  5  0
  221  38   0   5   0   0  0  0
  222 38964   0   0   0   0  0  0
  223 183   0   1   0   0  0  0
  224 632  21   2   0   0  0  0
  225 183   0   1   0   0  0  0
  226 10000   0   0   0   0  4  0
  227  38   0   5   0   0  0  0
  228 38964   0   0   0   0  0  0
  229 183   0   1   0   0  0  0
  230 632  17   2   0   0  0  0
  231 183   0   1   0   0  0  0
  232 10000   0   0   0   0  3  0
  233  38   0   5   0   0  0  0
  234 38964   0   0   0   0  0  0
  235 183   0   1   0   0  0  0
  236 632  10   2   0   0  0  0
  237 183   0   1   0   0  0  0
  238 10000   0   0   0   0  2  0
  239  38   0   5   0   0  0  0
  240 38964   0   0   0   0  0  0
  241 183   0   1   0   0  0  0
  242 632  22   2   0   0  0  0
  243 183   0   1   0   0  0  0
  244 10000   0  13   0   0 14  0
  245  38   0  11   0   0  0  0
  246 38964   0   0   0   0  0  0
  247 183   0   1   0   0  0  0
  248 632   2   2   0   0  0  0
  249 183   0   1   0   0  0  0
  250 10000   0  13   0   0  2  0
  251  38   0  11   0   0  0  0
  252 38964   0   0   0   0  0  0
  253 183   0   1   0   0  0  0
  254 632   3   2   0   0  0  0
  255 183   0   1   0   0  0  0
  256 10000   0  13   0   0  3  0
  257  38   0  11   0   0  0  0
  258 38964   0   0   0   0  0  0
  259 183   0   1   0   0  0  0
  260 632   4   2   0   0  0  0
  261 183   0   1   0   0  0  0
  262 10000   0  13   0   0  4  0
  263  38   0  11   0   0  0  0
  264 38964   0   0   0   0  0  0
  265 183   0   1   0   0  0  0
  266 632   5   2   0   0  0  0
  267 183   0   1   0   0  0  0
  268 10000   0  13   0   0  5  0
  269  38   0  11   0   0  0  0
  270 38964   0   0   0   0  0  0
  271 183   0   1   0   0  0  0
  272 632   6   2   0   0  0  0
  273 183   0   1   0   0  0  0
  274 10000   0  14   0   0  6  0
  275  38   0   4   0   0  0  0
  276 38964   0   0   0   0  0  0
  277 183   0   1   0   0  0  0
  278 632   7   2   0   0  0  0
  279 183   0   1   0   0  0  0
  280 10000   0  14   0   0  7  0
  281  38   0   4   0   0  0  0
  282 38964   0   0   0   0  0  0
  283 183   0   1   0   0  0  0
  284 632   8   2   0   0  0  0
  285 183   0   1   0   0  0  0
  286 10000   0  14   0   0  8  0
  287  38   0   4   0   0  0  0
  288 38964   0   0   0   0  0  0
  289 183   0   1   0   0  0  0
  290 632   9   2   0   0  0  0
  291 183   0   1   0   0  0  0
  292 10000   0  14   0   0  9  0
  293  38   0   4   0   0  0  0
  294 38964   0   0   0   0  0  0
  295 183   0   1   0   0  0  0
[RF]
1      93.4592 1 2 0 160 -26000 0
2      93.4592 1 2 0 160 -12666.7 1.02102
3      93.4592 1 2 0 160 666.667 4.08407
4      93.4592 1 2 0 160 14000 2.90597
5      93.4592 1 2 0 160 27333.3 3.76991
6      93.4592 1 2 0 160 -26000 0.392699
7      93.4592 1 2 0 160 -12666.7 5.34071
8      93.4592 1 2 0 160 666.667 6.04757
9      93.4592 1 2 0 160 14000 2.51327
10      93.4592 1 2 0 160 27333.3 1.02102
11      93.4592 1 2 0 160 -26000 1.5708
12      93.4592 1 2 0 160 -12666.7 4.16261
13      93.4592 1 2 0 160 666.667 2.51327
14      93.4592 1 2 0 160 27333.3 5.34071
15      93.4592 1 2 0 160 -26000 3.53429
16      93.4592 1 2 0 160 -12666.7 3.76991
17      93.4592 1 2 0 160 14000 4.08407
18      93.4592 1 2 0 160 27333.3 4.16261
19      93.4592 1 2 0 160 -26000 3.553e-14
20      93.4592 1 2 0 160 14000 6.04757
21      93.4592 1 2 0 160 666.667 2.90597
22      93.4592 1 2 0 160 -26000 1.4211e-13
23      93.4592 1 2 0 160 -26000 5.6843e-13
24      93.4592 1 2 0 160 -26000 6.28319
25      93.4592 1 2 0 160 -26000 2.27374e-12
26      93.4592 1 2 0 160 -26000 1.1724e-12
27      93.4592 1 2 0 160 -26000 9.0949e-12
28      93.4592 1 2 0 160 -26000 4.07141e-12
29      93.4592 1 2 0 160 -26000 1.35643e-11
30      93.4592 1 2 0 160 -26000 9.8694e-12
31      93.4592 1 2 0 160 -26000 5.4712e-13
32      93.4592 1 2 0 160 -26000 4.68958e-12
33      93.4592 1 2 0 160 -26000 1.47011e-11
34      93.4592 1 2 0 160 -26000 3.63798e-11
35      93.4592 1 2 0 160 -26000 2.33982e-11
36      93.4592 1 2 0 160 -26000 1.62856e-11
37      93.4592 1 2 0 160 -26000 1.50422e-11
38      93.4592 1 2 0 160 -26000 5.4257e-11
39      93.4592 1 2 0 160 -26000 3.4369e-11
40      93.4592 1 2 0 160 -26000 3.94778e-11
41      93.4592 1 2 0 160 -26000 2.18847e-12
42      93.4592 1 2 0 160 -26000 1.87583e-11
43      93.4592 1 2 0 160 -26000 5.88045e-11
44      93.4592 1 2 0 160 -26000 5.85274e-11
45      93.4592 1 2 0 160 -26000 1.73728e-11
46      93.4592 1 2 0 160 -26000 5.4925e-12
47      93.4592 1 2 0 160 -26000 3.47669e-11
48      93.4592 1 2 0 160 -26000 1.45519e-10
49      93.4592 1 2 0 160 -26000 8.75175e-11
50      93.4592 1 2 0 160 -26000 9.35927e-11
51      93.4592 1 2 0 160 -26000 6.51426e-11
52      93.4592 1 2 0 160 -26000 6.01688e-11
53      93.4592 1 2 0 160 -26000 4.92406e-12
54      93.4592 1 2 0 160 -26000 1.82787e-10
55      93.4592 1 2 0 160 -26000 1.90518e-10
56      93.4592 1 2 0 160 -26000 2.17028e-10
57      93.4592 1 2 0 160 -26000 4.35776e-11
58      93.4592 1 2 0 160 -26000 1.37476e-10
59      93.4592 1 2 0 160 -26000 1.57911e-10
60      93.4592 1 2 0 160 -26000 3.14131e-11
61      93.4592 1 2 0 160 -26000 1.66189e-10
62      93.4592 1 2 0 160 -26000 1.52376e-10
63      93.4592 1 2 0 160 -26000 8.75389e-12
64      93.4592 1 2 0 160 -26000 7.50333e-11
65      93.4592 1 2 0 160 -26000 2.51795e-10

# Format of arbitrary gradients:
#   time_shape_id of 0 means default timing (stepping with grad_raster starting at 1/2 of grad_raster)
# id amplitude amp_shape_id time_shape_id delay
# ..      Hz/m       ..         ..          us
[GRADIENTS]
3      -294151 3 0 2000
6       294151 3 0 2000
8    1.188e+06 4 0 2000
10   -1.188e+06 4 0 2000
12    1.188e+06 5 0 2000
13   -1.188e+06 5 0 2000
14      -207992 6 0 2000
15       207992 6 0 2000
16    1.188e+06 7 0 2000
18   -1.188e+06 7 0 2000
20    1.188e+06 8 0 2000
21   -1.188e+06 8 0 2000
22      -509451 9 0 2000
24       509451 9 0 2000
26    1.188e+06 10 0 2000
28   -1.188e+06 10 0 2000
30    1.188e+06 11 0 2000
31   -1.188e+06 11 0 2000
32      -360248 12 0 2000
34       360248 12 0 2000
36    1.188e+06 13 0 2000
38   -1.188e+06 13 0 2000
40    1.188e+06 14 0 2000
41   -1.188e+06 14 0 2000

# Format of trapezoid gradients:
# id amplitude rise flat fall delay
# ..      Hz/m   us   us   us    us
[TRAP]
 1 -1.35982e+06 320 1190 320   0
 2       666667 160 6000 160   0
 4  1.06378e+06 190    0 190   0
 5            0 190    0 190   0
 7 -1.06378e+06 190    0 190   0
 9       532305 190    0 190   0
11      -532305 190    0 190   0
17       532718 190    0 190   0
19      -532718 190    0 190   0
23   1.0991e+06 190    0 190   0
25  -1.0991e+06 190    0 190   0
27       581191 190    0 190   0
29      -581191 190    0 190   0
33  1.09073e+06 190    0 190   0
35 -1.09073e+06 190    0 190   0
37       575787 190    0 190   0
39      -575787 190    0 190   0

# Format of ADC events:
# id num dwell delay freq phase
# ..  ..    ns    us   Hz   rad
[ADC]
1 20000 4000 1000 0 0
2 20000 4000 1000 0 1.02102
3 20000 4000 1000 0 4.08407
4 20000 4000 1000 0 2.90597
5 20000 4000 1000 0 3.76991
6 20000 4000 1000 0 0.392699
7 20000 4000 1000 0 5.34071
8 20000 4000 1000 0 6.04757
9 20000 4000 1000 0 2.51327
10 20000 4000 1000 0 1.5708
11 20000 4000 1000 0 4.16261
12 20000 4000 1000 0 3.53429
13 20000 4000 1000 0 3.553e-14
14 20000 4000 1000 0 1.4211e-13
15 20000 4000 1000 0 5.6843e-13
16 20000 4000 1000 0 6.28319
17 20000 4000 1000 0 2.27374e-12
18 20000 4000 1000 0 1.1724e-12
19 20000 4000 1000 0 9.0949e-12
20 20000 4000 1000 0 4.07141e-12
21 20000 4000 1000 0 1.35643e-11
22 20000 4000 1000 0 9.8694e-12
23 20000 4000 1000 0 5.4712e-13
24 20000 4000 1000 0 4.68958e-12
25 20000 4000 1000 0 1.47011e-11
26 20000 4000 1000 0 3.63798e-11
27 20000 4000 1000 0 2.33982e-11
28 20000 4000 1000 0 1.62856e-11
29 20000 4000 1000 0 1.50422e-11
30 20000 4000 1000 0 5.4257e-11
31 20000 4000 1000 0 3.4369e-11
32 20000 4000 1000 0 3.94778e-11
33 20000 4000 1000 0 2.18847e-12
34 20000 4000 1000 0 1.87583e-11
35 20000 4000 1000 0 5.88045e-11
36 20000 4000 1000 0 5.85274e-11
37 20000 4000 1000 0 1.73728e-11
38 20000 4000 1000 0 5.4925e-12
39 20000 4000 1000 0 3.47669e-11
40 20000 4000 1000 0 1.45519e-10
41 20000 4000 1000 0 8.75175e-11
42 20000 4000 1000 0 9.35927e-11
43 20000 4000 1000 0 6.51426e-11
44 20000 4000 1000 0 6.01688e-11
45 20000 4000 1000 0 4.92406e-12
46 20000 4000 1000 0 1.82787e-10
47 20000 4000 1000 0 1.90518e-10
48 20000 4000 1000 0 2.17028e-10
49 20000 4000 1000 0 4.35776e-11
50 20000 4000 1000 0 1.37476e-10
51 20000 4000 1000 0 1.57911e-10
52 20000 4000 1000 0 3.14131e-11
53 20000 4000 1000 0 1.66189e-10
54 20000 4000 1000 0 1.52376e-10
55 20000 4000 1000 0 8.75389e-12
56 20000 4000 1000 0 7.50333e-11
57 20000 4000 1000 0 2.51795e-10

# Sequence Shapes
[SHAPES]

shape_id 1
num_samples 6000
3.33389008e-05
0.000100050131
0.000166806092
0.000233606975
0.000300452971
0.000367344272
0.00043428107
0.000501263557
0.000568291925
0.000635366367
0.000702487075
0.000769654243
0.000836868063
0.000904128729
0.000971436434
0.00103879137
0.00110619374
0.00117364372
0.00124114152
0.00130868733
0.00137628135
0.00144392376
0.00151161476
0.00157935456
0.00164714334
0.00171498129
0.00178286862
0.00185080552
0.00191879218
0.0019868288
0.00205491558
0.00212305271
0.00219124038
0.0022594788
0.00232776816
0.00239610865
0.00246450048
0.00253294383
0.00260143891
0.0026699859
0.00273858502
0.00280723644
0.00287594038
0.00294469702
0.00301350656
0.00308236919
0.00315128513
0.00322025455
0.00328927766
0.00335835466
0.00342748573
0.00349667108
0.0035659109
0.00363520539
0.00370455474
0.00377395916
0.00384341883
0.00391293395
0.00398250473
0.00405213134
0.004121814
0.00419155289
0.00426134821
0.00433120016
0.00440110894
0.00447107472
0.00454109772
0.00461117813
0.00468131614
0.00475151195
0.00482176575
0.00489207773
0.00496244809
0.00503287703
0.00510336473
0.0051739114
0.00524451722
0.00531518239
0.0053859071
0.00545669154
0.00552753591
0.00559844041
0.00566940521
0.00574043052
0.00581151652
0.00588266341
0.00595387138
0.00602514062
0.00609647132
0.00616786367
0.00623931786
0.00631083409
0.00638241254
0.00645405339
0.00652575685
0.0065975231
0.00666935232
0.00674124471
0.00681320045
0.00688521974
0.00695730275
0.00702944968
0.00710166071
0.00717393603
0.00724627583
0.00731868028
0.00739114958
0.00746368391
0.00753628345
0.00760894839
0.00768167892
0.0077544752
0.00782733744
0.0079002658
0.00797326048
0.00804632165
0.0081194495
0.0081926442
0.00826590593
0.00833923488
0.00841263123
0.00848609515
0.00855962682
0.00863322642
0.00870689413
0.00878063012
0.00885443457
0.00892830765
0.00900224955
0.00907626044
0.00915034048
0.00922448986
0.00929870875
0.00937299732
0.00944735574
0.00952178418
0.00959628282
0.00967085182
0.00974549136
0.00982020161
0.00989498273
0.00996983489
0.0100447583
0.010119753
0.0101948193
0.0102699573
0.0103451672
0.0104204491
0.0104958032
0.0105712297
0.0106467287
0.0107223004
0.0107979449
0.0108736624
0.0109494532
0.0110253172
0.0111012548
0.0111772659
0.0112533509
0.0113295099
0.0114057429
0.0114820503
0.011558432
0.0116348884
0.0117114194
0.0117880254
0.0118647064
0.0119414625
0.012018294
0.012095201
0.0121721836
0.012249242
0.0123263763
0.0124035867
0.0124808732
0.0125582362
0.0126356756
0.0127131917
0.0127907846
0.0128684544
0.0129462013
0.0130240254
0.0131019268
0.0131799057
0.0132579622
0.0133360965
0.0134143086
0.0134925988
0.0135709671
0.0136494137
0.0137279388
0.0138065423
0.0138852246
0.0139639856
0.0140428256
0.0141217447
0.0142007429
0.0142798204
0.0143589774
0.0144382139
0.0145175301
0.0145969261
0.014676402
0.0147559579
0.014835594
0.0149153104
0.0149951071
0.0150749844
0.0151549422
0.0152349808
0.0153151002
0.0153953005
0.0154755819
0.0155559445
0.0156363884
0.0157169136
0.0157975203
0.0158782085
0.0159589785
0.0160398303
0.0161207639
0.0162017796
0.0162828773
0.0163640572
0.0164453194
0.0165266639
0.016608091
0.0166896006
0.0167711928
0.0168528678
0.0169346257
0.0170164664
0.0170983902
0.017180397
0.0172624871
0.0173446604
0.017426917
0.0175092571
0.0175916806
0.0176741878
0.0177567786
0.0178394531
0.0179222115
0.0180050537
0.0180879799
0.0181709902
0.0182540845
0.0183372629
0.0184205257
0.0185038727
0.018587304
0.0186708198
0.0187544201
0.0188381049
0.0189218744
0.0190057284
0.0190896673
0.0191736908
0.0192577993
0.0193419926
0.0194262708
0.019510634
0.0195950822
0.0196796155
0.019764234
0.0198489376
0.0199337264
0.0200186005
0.0201035598
0.0201886045
0.0202737346
0.02035895
0.0204442509
0.0205296373
0.0206151091
0.0207006665
0.0207863095
0.020872038
0.0209578521
0.0210437519
0.0211297374
0.0212158085
0.0213019653
0.0213882078
0.0214745361
0.0215609501
0.0216474498
0.0217340354
0.0218207067
0.0219074638
0.0219943067
0.0220812355
0.02216825
0.0222553503
0.0223425365
0.0224298085
0.0225171662
0.0226046098
0.0226921392
0.0227797544
0.0228674554
0.0229552421
0.0230431146
0.0231310729
0.0232191169
0.0233072466
0.023395462
0.0234837631
0.0235721499
0.0236606222
0.0237491803
0.0238378238
0.023926553
0.0240153677
0.0241042678
0.0241932535
0.0242823245
0.024371481
0.0244607228
0.0245500499
0.0246394623
0.0247289599
0.0248185427
0.0249082106
0.0249979636
0.0250878017
0.0251777247
0.0252677327
0.0253578255
0.0254480031
0.0255382655
0.0256286126
0.0257190444
0.0258095607
0.0259001614
0.0259908467
0.0260816163
0.0261724701
0.0262634082
0.0263544305
0.0264455368
0.026536727
0.0266280012
0.0267193592
0.026810801
0.0269023263
0.0269939353
0.0270856277
0.0271774035
0.0272692625
0.0273612048
0.0274532301
0.0275453385
0.0276375297
0.0277298037
0.0278221603
0.0279145996
0.0280071213
0.0280997253
0.0281924116
0.02828518
0.0283780304
0.0284709627
0.0285639767
0.0286570724
0.0287502496
0.0288435081
0.028936848
0.0290302689
0.0291237709
0.0292173537
0.0293110172
0.0294047613
0.0294985858
0.0295924907
0.0296864757
0.0297805406
0.0298746855
0.02996891
0.0300632141
0.0301575976
0.0302520604
0.0303466022
0.0304412229
0.0305359224
0.0306307004
0.0307255569
0.0308204917
0.0309155045
0.0310105952
0.0311057636
0.0312010096
0.031296333
0.0313917335
0.0314872111
0.0315827654
0.0316783964
0.0317741038
0.0318698875
0.0319657472
0.0320616828
0.032157694
0.0322537806
0.0323499425
0.0324461795
0.0325424912
0.0326388776
0.0327353384
0.0328318734
0.0329284824
0.0330251651
0.0331219214
0.033218751
0.0333156536
0.0334126291
0.0335096773
0.0336067978
0.0337039905
0.0338012552
0.0338985915
0.0339959993
0.0340934782
0.0341910282
0.0342886488
0.0343863399
0.0344841012
0.0345819324
0.0346798333
0.0347778037
0.0348758433
0.0349739517
0.0350721288
0.0351703743
0.0352686879
0.0353670693
0.0354655182
0.0355640345
0.0356626177
0.0357612677
0.0358599841
0.0359587666
0.036057615
0.036156529
0.0362555082
0.0363545524
0.0364536613
0.0365528345
0.0366520718
0.0367513729
0.0368507375
0.0369501652
0.0370496557
0.0371492087
0.037248824
0.0373485011
0.0374482398
0.0375480398
0.0376479006
0.037747822
0.0378478037
0.0379478453
0.0380479465
0.0381481069
0.0382483262
0.0383486041
0.0384489401
0.0385493341
0.0386497855
0.0387502941
0.0388508595
0.0389514814
0.0390521593
0.0391528929
0.0392536819
0.0393545259
0.0394554245
0.0395563774
0.0396573841
0.0397584443
0.0398595576
0.0399607236
0.040061942
0.0401632123
0.0402645342
0.0403659072
0.0404673311
0.0405688053
0.0406703295
0.0407719032
0.0408735262
0.0409751979
0.0410769179
0.0411786859
0.0412805014
0.0413823641
0.0414842734
0.0415862289
0.0416882304
0.0417902772
0.041892369
0.0419945053
0.0420966858
0.04219891
0.0423011774
0.0424034875
0.0425058401
0.0426082345
0.0427106704
0.0428131472
0.0429156647
0.0430182222
0.0431208193
0.0432234556
0.0433261305
0.0434288437
0.0435315947
0.0436343829
0.043737208
0.0438400693
0.0439429665
0.0440458991
0.0441488666
0.0442518684
0.0443549041
0.0444579732
0.0445610753
0.0446642097
0.0447673761
0.0448705738
0.0449738024
0.0450770614
0.0451803503
0.0452836685
0.0453870156
0.045490391
0.0455937942
0.0456972246
0.0458006818
0.0459041652
0.0460076743
0.0461112085
0.0462147674
0.0463183503
0.0464219567
0.046525586
0.0466292378
0.0467329115
0.0468366065
0.0469403222
0.0470440582
0.0471478138
0.0472515884
0.0473553816
0.0474591927
0.0475630212
0.0476668665
0.0477707279
0.047874605
0.0479784972
0.0480824038
0.0481863243
0.048290258
0.0483942045
0.048498163
0.048602133
0.048706114
0.0488101052
0.0489141061
0.049018116
0.0491221344
0.0492261607
0.0493301941
0.0494342342
0.0495382802
0.0496423316
0.0497463878
0.049850448
0.0499545117
0.0500585782
0.0501626468
0.0502667171
0.0503707882
0.0504748596
0.0505789305
0.0506830004
0.0507870686
0.0508911345
0.0509951973
0.0510992564
0.0512033112
0.0513073609
0.0514114049
0.0515154426
0.0516194732
0.0517234961
0.0518275106
0.0519315159
0.0520355115
0.0521394967
0.0522434706
0.0523474327
0.0524513822
0.0525553185
0.0526592408
0.0527631485
0.0528670407
0.0529709169
0.0530747762
0.053178618
0.0532824416
0.0533862462
0.0534900312
0.0535937957
0.053697539
0.0538012605
0.0539049593
0.0540086348
0.0541122862
0.0542159127
0.0543195137
0.0544230882
0.0545266358
0.0546301554
0.0547336464
0.0548371081
0.0549405397
0.0550439403
0.0551473093
0.0552506458
0.0553539492
0.0554572185
0.0555604531
0.0556636521
0.0557668148
0.0558699404
0.0559730281
0.0560760771
0.0561790865
0.0562820557
0.0563849838
0.0564878699
0.0565907134
0.0566935133
0.056796269
0.0568989794
0.0570016439
0.0571042617
0.0572068318
0.0573093535
0.057411826
0.0575142484
0.0576166198
0.0577189395
0.0578212066
0.0579234203
0.0580255797
0.058127684
0.0582297323
0.0583317238
0.0584336576
0.0585355328
0.0586373487
0.0587391043
0.0588407988
0.0589424313
0.059044001
0.0591455069
0.0592469482
0.059348324
0.0594496334
0.0595508756
0.0596520496
0.0597531547
0.0598541897
0.059955154
0.0600560466
0.0601568665
0.060257613
0.060358285
0.0604588817
0.0605594022
0.0606598455
0.0607602107
0.0608604969
0.0609607033
0.0610608288
0.0611608726
0.0612608337
0.0613607111
0.061460504
0.0615602115
0.0616598325
0.0617593661
0.0618588114
0.0619581675
0.0620574334
0.0621566081
0.0622556907
0.0623546802
0.0624535756
0.0625523761
0.0626510806
0.0627496882
0.0628481979
0.0629466087
0.0630449197
0.0631431298
0.0632412382
0.0633392437
0.0634371455
0.0635349425
0.0636326337
0.0637302182
0.0638276949
0.0639250629
0.0640223211
0.0641194686
0.0642165043
0.0643134273
0.0644102365
0.0645069309
0.0646035094
0.0646999712
0.064796315
0.06489254
0.0649886451
0.0650846293
0.0651804915
0.0652762307
0.0653718458
0.0654673359
0.0655626999
0.0656579367
0.0657530452
0.0658480246
0.0659428736
0.0660375912
0.0661321764
0.0662266281
0.0663209453
0.0664151268
0.0665091717
0.0666030788
0.0666968471
0.0667904755
0.0668839629
0.0669773083
0.0670705105
0.0671635685
0.0672564812
0.0673492475
0.0674418663
0.0675343365
0.0676266571
0.0677188268
0.0678108447
0.0679027096
0.0679944204
0.068085976
0.0681773753
0.0682686171
0.0683597004
0.0684506241
0.0685413869
0.0686319879
0.0687224258
0.0688126996
0.068902808
0.0689927501
0.0690825245
0.0691721303
0.0692615662
0.0693508312
0.069439924
0.0695288436
0.0696175887
0.0697061583
0.0697945511
0.069882766
0.0699708019
0.0700586576
0.0701463319
0.0702338237
0.0703211318
0.070408255
0.0704951921
0.0705819421
0.0706685036
0.0707548755
0.0708410567
0.0709270459
0.071012842
0.0710984438
0.0711838501
0.0712690596
0.0713540712
0.0714388838
0.071523496
0.0716079067
0.0716921148
0.0717761189
0.0718599178
0.0719435105
0.0720268955
0.0721100719
0.0721930382
0.0722757933
0.072358336
0.072440665
0.0725227792
0.0726046772
0.0726863579
0.07276782
0.0728490624
0.0729300836
0.0730108826
0.073091458
0.0731718087
0.0732519334
0.0733318307
0.0734114996
0.0734909387
0.0735701467
0.0736491225
0.0737278647
0.0738063721
0.0738846435
0.0739626775
0.0740404729
0.0741180284
0.0741953428
0.0742724148
0.074349243
0.0744258263
0.0745021634
0.0745782529
0.0746540936
0.0747296842
0.0748050234
0.0748801099
0.0749549424
0.0750295197
0.0751038404
0.0751779032
0.0752517069
0.0753252501
0.0753985315
0.0754715499
0.0755443039
0.0756167921
0.0756890134
0.0757609664
0.0758326497
0.0759040621
0.0759752021
0.0760460686
0.0761166602
0.0761869755
0.0762570133
0.0763267722
0.0763962508
0.0764654479
0.076534362
0.0766029919
0.0766713363
0.0767393937
0.0768071629
0.0768746425
0.0769418311
0.0770087274
0.0770753301
0.0771416378
0.0772076491
0.0772733627
0.0773387773
0.0774038915
0.0774687038
0.077533213
0.0775974177
0.0776613166
0.0777249082
0.0777881912
0.0778511642
0.0779138258
0.0779761747
0.0780382096
0.0780999289
0.0781613314
0.0782224156
0.0782831802
0.0783436238
0.078403745
0.0784635425
0.0785230147
0.0785821604
0.0786409781
0.0786994665
0.0787576241
0.0788154496
0.0788729415
0.0789300985
0.0789869192
0.0790434021
0.0790995458
0.079155349
0.0792108102
0.079265928
0.079320701
0.0793751278
0.079429207
0.0794829371
0.0795363168
0.0795893446
0.0796420191
0.0796943389
0.0797463026
0.0797979086
0.0798491557
0.0799000424
0.0799505672
0.0800007287
0.0800505255
0.0800999561
0.0801490191
0.0801977132
0.0802460367
0.0802939884
0.0803415667
0.0803887702
0.0804355975
0.0804820471
0.0805281176
0.0805738075
0.0806191154
0.0806640399
0.0807085794
0.0807527325
0.0807964978
0.0808398739
0.0808828591
0.0809254522
0.0809676517
0.081009456
0.0810508637
0.0810918733
0.0811324835
0.0811726927
0.0812124994
0.0812519023
0.0812908997
0.0813294903
0.0813676726
0.0814054451
0.0814428063
0.0814797548
0.081516289
0.0815524076
0.0815881089
0.0816233917
0.0816582542
0.0816926952
0.081726713
0.0817603063
0.0817934735
0.0818262132
0.0818585237
0.0818904038
0.0819218519
0.0819528664
0.0819834459
0.0820135889
0.082043294
0.0820725595
0.0821013841
0.0821297662
0.0821577043
0.082185197
0.0822122426
0.0822388399
0.0822649871
0.0822906829
0.0823159257
0.082340714
0.0823650463
0.0823889212
0.082412337
0.0824352923
0.0824577857
0.0824798155
0.0825013803
0.0825224785
0.0825431087
0.0825632693
0.0825829589
0.0826021759
0.0826209187
0.082639186
0.0826569761
0.0826742876
0.0826911189
0.0827074685
0.0827233349
0.0827387165
0.082753612
0.0827680196
0.082781938
0.0827953656
0.0828083008
0.0828207422
0.0828326882
0.0828441374
0.082855088
0.0828655388
0.082875488
0.0828849342
0.0828938759
0.0829023116
0.0829102396
0.0829176585
0.0829245668
0.0829309629
0.0829368453
0.0829422124
0.0829470628
0.0829513948
0.082955207
0.0829584979
0.0829612658
0.0829635093
0.0829652268
0.0829664169
0.0829670778
0.0829672082
0.0829668065
0.0829658711
0.0829644005
0.0829623932
0.0829598477
0.0829567623
0.0829531356
0.0829489661
0.0829442521
0.0829389921
0.0829331847
0.0829268282
0.0829199212
0.082912462
0.0829044492
0.0828958812
