# Pulseq sequence file
# Created by PyPulseq

[VERSION]
major 1
minor 4
revision 2

[DEFINITIONS]
AdcRasterTime 1e-07 
B1peak 1.2 
BlockDurationRaster 1e-05 
DC 0.5 
FOV 0.3 0.3 0.008 
GradientRasterTime 1e-05 
HR 60 
MaxAdcSegmentLength 456 
N_Interleaves 12 
N_Pulses 30 
Name Spiral_CEST_SPSP_ZSPEC_60_bpm 
Nx 128 
Offsets_ppm 75 -10 -9 -8 -7 -6 -5 -4.8 -4.6 -4.4 -4.2 -4 -3.8 -3.6 -3.4 -3.2 -3 -2.8 -2.6 -2.4 -2.2 -2 -1.8 -1.6 -1.4 -1.2 -1 -0.8 -0.6 -0.4 -0.2 0 0.2 0.4 0.6 0.8 1 1.2 1.4 1.6 1.8 2 2.2 2.4 2.6 2.8 3 3.2 3.4 3.6 3.8 4 4.2 4.4 4.6 4.8 5 6 7 8 9 10 
RadiofrequencyRasterTime 1e-06 
Slice_Thickness 0.008 
TotalDuration 918.182 

# Format of blocks:
# NUM DUR RF  GX  GY  GZ  ADC  EXT
[BLOCKS]
   1 28850   0   0   0   0  0  1
   2 3608   1   1   2   0  0  0
   3 650   0   3   3   3  0  0
   4 2950   0   0   0   0  0  0
   5 3608   2   1   2   0  0  0
   6 650   0   3   3   3  0  0
   7 2950   0   0   0   0  0  0
   8 3608   3   1   2   0  0  0
   9 650   0   3   3   3  0  0
  10 2950   0   0   0   0  0  0
  11 3608   4   1   2   0  0  0
  12 650   0   3   3   3  0  0
  13 2950   0   0   0   0  0  0
  14 3608   5   1   2   0  0  0
  15 650   0   3   3   3  0  0
  16 2950   0   0   0   0  0  0
  17 3608   6   1   2   0  0  0
  18 650   0   3   3   3  0  0
  19 2950   0   0   0   0  0  0
  20 3608   7   1   2   0  0  0
  21 650   0   3   3   3  0  0
  22 2950   0   0   0   0  0  0
  23 3608   8   1   2   0  0  0
  24 650   0   3   3   3  0  0
  25 2950   0   0   0   0  0  0
  26 3608   9   1   2   0  0  0
  27 650   0   3   3   3  0  0
  28 2950   0   0   0   0  0  0
  29 3608  10   1   2   0  0  0
  30 650   0   3   3   3  0  0
  31 2950   0   0   0   0  0  0
  32 3608  11   1   2   0  0  0
  33 650   0   3   3   3  0  0
  34 2950   0   0   0   0  0  0
  35 3608  12   1   2   0  0  0
  36 650   0   3   3   3  0  0
  37 2950   0   0   0   0  0  0
  38 3608  13   1   2   0  0  0
  39 650   0   3   3   3  0  0
  40 2950   0   0   0   0  0  0
  41 3608  14   1   2   0  0  0
  42 650   0   3   3   3  0  0
  43 2950   0   0   0   0  0  0
  44 3608  15   1   2   0  0  0
  45 650   0   3   3   3  0  0
  46 2950   0   0   0   0  0  0
  47 3608  16   1   2   0  0  0
  48 650   0   3   3   3  0  0
  49 2950   0   0   0   0  0  0
  50 3608  17   1   2   0  0  0
  51 650   0   3   3   3  0  0
  52 2950   0   0   0   0  0  0
  53 3608  18   1   2   0  0  0
  54 650   0   3   3   3  0  0
  55 2950   0   0   0   0  0  0
  56 3608  19   1   2   0  0  0
  57 650   0   3   3   3  0  0
  58 2950   0   0   0   0  0  0
  59 3608  20   1   2   0  0  0
  60 650   0   3   3   3  0  0
  61 2950   0   0   0   0  0  0
  62 3608  21   1   2   0  0  0
  63 650   0   3   3   3  0  0
  64 2950   0   0   0   0  0  0
  65 3608  22   1   2   0  0  0
  66 650   0   3   3   3  0  0
  67 2950   0   0   0   0  0  0
  68 3608  23   1   2   0  0  0
  69 650   0   3   3   3  0  0
  70 2950   0   0   0   0  0  0
  71 3608  24   1   2   0  0  0
  72 650   0   3   3   3  0  0
  73 2950   0   0   0   0  0  0
  74 3608  25   1   2   0  0  0
  75 650   0   3   3   3  0  0
  76 2950   0   0   0   0  0  0
  77 3608  26   1   2   0  0  0
  78 650   0   3   3   3  0  0
  79 2950   0   0   0   0  0  0
  80 3608  27   1   2   0  0  0
  81 650   0   3   3   3  0  0
  82 2950   0   0   0   0  0  0
  83 3608  28   1   2   0  0  0
  84 650   0   3   3   3  0  0
  85 2950   0   0   0   0  0  0
  86 3608  29   1   2   0  0  0
  87 650   0   3   3   3  0  0
  88 2950   0   0   0   0  0  0
  89 3608  30   1   2   0  0  0
  90 650   0   3   3   3  0  0
  91 148  31   0   0   4  0  0
  92  79   0   0   0   5  0  0
  93 458   0   6   7   0  1  0
  94  58   0   8   9  10  0  0
  95   4   0   0   0   0  0  0
  96 148  32   0   0   4  0  0
  97  79   0   0   0   5  0  0
  98 458   0  11  12   0  2  0
  99  51   0  13  14  10  0  0
 100  11   0   0   0   0  0  0
 101 148  33   0   0   4  0  0
 102  79   0   0   0   5  0  0
 103 458   0  15  16   0  3  0
 104  61   0  17  18  10  0  0
 105 148  34   0   0   4  0  0
 106  79   0   0   0   5  0  0
 107 458   0  19   6   0  4  0
 108  58   0  20   8  10  0  0
 109   4   0   0   0   0  0  0
 110 148  35   0   0   4  0  0
 111  79   0   0   0   5  0  0
 112 458   0  21  11   0  5  0
 113  51   0  22  13  10  0  0
 114  11   0   0   0   0  0  0
 115 148  36   0   0   4  0  0
 116  79   0   0   0   5  0  0
 117 458   0  23  15   0  6  0
 118  61   0  24  17  10  0  0
 119 148  37   0   0   4  0  0
 120  79   0   0   0   5  0  0
 121 458   0  25  19   0  7  0
 122  58   0  26  20  10  0  0
 123   4   0   0   0   0  0  0
 124 148  38   0   0   4  0  0
 125  79   0   0   0   5  0  0
 126 458   0  27  21   0  8  0
 127  51   0  28  22  10  0  0
 128  11   0   0   0   0  0  0
 129 148  39   0   0   4  0  0
 130  79   0   0   0   5  0  0
 131 458   0  29  23   0  9  0
 132  61   0  30  24  10  0  0
 133 148  40   0   0   4  0  0
 134  79   0   0   0   5  0  0
 135 458   0   7  25   0 10  0
 136  58   0   9  26  10  0  0
 137   4   0   0   0   0  0  0
 138 148  36   0   0   4  0  0
 139  79   0   0   0   5  0  0
 140 458   0  12  27   0  6  0
 141  51   0  14  28  10  0  0
 142  11   0   0   0   0  0  0
 143 148  41   0   0   4  0  0
 144  79   0   0   0   5  0  0
 145 458   0  16  29   0 11  0
 146  61   0  18  30  10  0  0
 147 1250000   0   0   0   0  0  0
 148 28850   0   0   0   0  0  1
 149 3608  42   1   2   0  0  0
 150 650   0   3   3   3  0  0
 151 2950   0   0   0   0  0  0
 152 3608  43   1   2   0  0  0
 153 650   0   3   3   3  0  0
 154 2950   0   0   0   0  0  0
 155 3608  44   1   2   0  0  0
 156 650   0   3   3   3  0  0
 157 2950   0   0   0   0  0  0
 158 3608  45   1   2   0  0  0
 159 650   0   3   3   3  0  0
 160 2950   0   0   0   0  0  0
 161 3608  46   1   2   0  0  0
 162 650   0   3   3   3  0  0
 163 2950   0   0   0   0  0  0
 164 3608  47   1   2   0  0  0
 165 650   0   3   3   3  0  0
 166 2950   0   0   0   0  0  0
 167 3608  48   1   2   0  0  0
 168 650   0   3   3   3  0  0
 169 2950   0   0   0   0  0  0
 170 3608  49   1   2   0  0  0
 171 650   0   3   3   3  0  0
 172 2950   0   0   0   0  0  0
 173 3608  50   1   2   0  0  0
 174 650   0   3   3   3  0  0
 175 2950   0   0   0   0  0  0
 176 3608  51   1   2   0  0  0
 177 650   0   3   3   3  0  0
 178 2950   0   0   0   0  0  0
 179 3608  52   1   2   0  0  0
 180 650   0   3   3   3  0  0
 181 2950   0   0   0   0  0  0
 182 3608  53   1   2   0  0  0
 183 650   0   3   3   3  0  0
 184 2950   0   0   0   0  0  0
 185 3608  54   1   2   0  0  0
 186 650   0   3   3   3  0  0
 187 2950   0   0   0   0  0  0
 188 3608  55   1   2   0  0  0
 189 650   0   3   3   3  0  0
 190 2950   0   0   0   0  0  0
 191 3608  56   1   2   0  0  0
 192 650   0   3   3   3  0  0
 193 2950   0   0   0   0  0  0
 194 3608  57   1   2   0  0  0
 195 650   0   3   3   3  0  0
 196 2950   0   0   0   0  0  0
 197 3608  58   1   2   0  0  0
 198 650   0   3   3   3  0  0
 199 2950   0   0   0   0  0  0
 200 3608  59   1   2   0  0  0
 201 650   0   3   3   3  0  0
 202 2950   0   0   0   0  0  0
 203 3608  60   1   2   0  0  0
 204 650   0   3   3   3  0  0
 205 2950   0   0   0   0  0  0
 206 3608  61   1   2   0  0  0
 207 650   0   3   3   3  0  0
 208 2950   0   0   0   0  0  0
 209 3608  62   1   2   0  0  0
 210 650   0   3   3   3  0  0
 211 2950   0   0   0   0  0  0
 212 3608  63   1   2   0  0  0
 213 650   0   3   3   3  0  0
 214 2950   0   0   0   0  0  0
 215 3608  64   1   2   0  0  0
 216 650   0   3   3   3  0  0
 217 2950   0   0   0   0  0  0
 218 3608  65   1   2   0  0  0
 219 650   0   3   3   3  0  0
 220 2950   0   0   0   0  0  0
 221 3608  66   1   2   0  0  0
 222 650   0   3   3   3  0  0
 223 2950   0   0   0   0  0  0
 224 3608  67   1   2   0  0  0
 225 650   0   3   3   3  0  0
 226 2950   0   0   0   0  0  0
 227 3608  68   1   2   0  0  0
 228 650   0   3   3   3  0  0
 229 2950   0   0   0   0  0  0
 230 3608  69   1   2   0  0  0
 231 650   0   3   3   3  0  0
 232 2950   0   0   0   0  0  0
 233 3608  70   1   2   0  0  0
 234 650   0   3   3   3  0  0
 235 2950   0   0   0   0  0  0
 236 3608  71   1   2   0  0  0
 237 650   0   3   3   3  0  0
 238 148  31   0   0   4  0  0
 239  79   0   0   0   5  0  0
 240 458   0   6   7   0  1  0
 241  58   0   8   9  10  0  0
 242   4   0   0   0   0  0  0
 243 148  32   0   0   4  0  0
 244  79   0   0   0   5  0  0
 245 458   0  11  12   0  2  0
 246  51   0  13  14  10  0  0
 247  11   0   0   0   0  0  0
 248 148  33   0   0   4  0  0
 249  79   0   0   0   5  0  0
 250 458   0  15  16   0  3  0
 251  61   0  17  18  10  0  0
 252 148  34   0   0   4  0  0
 253  79   0   0   0   5  0  0
 254 458   0  19   6   0  4  0
 255  58   0  20   8  10  0  0
 256   4   0   0   0   0  0  0
 257 148  35   0   0   4  0  0
 258  79   0   0   0   5  0  0
 259 458   0  21  11   0  5  0
 260  51   0  22  13  10  0  0
 261  11   0   0   0   0  0  0
 262 148  36   0   0   4  0  0
 263  79   0   0   0   5  0  0
 264 458   0  23  15   0  6  0
 265  61   0  24  17  10  0  0
 266 148  37   0   0   4  0  0
 267  79   0   0   0   5  0  0
 268 458   0  25  19   0  7  0
 269  58   0  26  20  10  0  0
 270   4   0   0   0   0  0  0
 271 148  38   0   0   4  0  0
 272  79   0   0   0   5  0  0
 273 458   0  27  21   0  8  0
 274  51   0  28  22  10  0  0
 275  11   0   0   0   0  0  0
 276 148  39   0   0   4  0  0
 277  79   0   0   0   5  0  0
 278 458   0  29  23   0  9  0
 279  61   0  30  24  10  0  0
 280 148  40   0   0   4  0  0
 281  79   0   0   0   5  0  0
 282 458   0   7  25   0 10  0
 283  58   0   9  26  10  0  0
 284   4   0   0   0   0  0  0
 285 148  36   0   0   4  0  0
 286  79   0   0   0   5  0  0
 287 458   0  12  27   0  6  0
 288  51   0  14  28  10  0  0
 289  11   0   0   0   0  0  0
 290 148  41   0   0   4  0  0
 291  79   0   0   0   5  0  0
 292 458   0  16  29   0 11  0
 293  61   0  18  30  10  0  0
 294 1250000   0   0   0   0  0  0
 295 28850   0   0   0   0  0  1
[RF]
1      742.362 1 2 3 100 9579.6 0
2      742.362 1 2 3 100 9579.6 2.76696
3      742.362 1 2 3 100 9579.6 5.53393
4      742.362 1 2 3 100 9579.6 2.01771
5      742.362 1 2 3 100 9579.6 4.78467
6      742.362 1 2 3 100 9579.6 1.26845
7      742.362 1 2 3 100 9579.6 4.03541
8      742.362 1 2 3 100 9579.6 0.519192
9      742.362 1 2 3 100 9579.6 3.28616
10      742.362 1 2 3 100 9579.6 6.05312
11      742.362 1 2 3 100 9579.6 2.5369
12      742.362 1 2 3 100 9579.6 5.30386
13      742.362 1 2 3 100 9579.6 1.78764
14      742.362 1 2 3 100 9579.6 4.55461
15      742.362 1 2 3 100 9579.6 1.03838
16      742.362 1 2 3 100 9579.6 3.80535
17      742.362 1 2 3 100 9579.6 0.289127
18      742.362 1 2 3 100 9579.6 3.05609
19      742.362 1 2 3 100 9579.6 5.82306
20      742.362 1 2 3 100 9579.6 2.30683
21      742.362 1 2 3 100 9579.6 5.0738
22      742.362 1 2 3 100 9579.6 1.55758
23      742.362 1 2 3 100 9579.6 4.32454
24      742.362 1 2 3 100 9579.6 0.808319
25      742.362 1 2 3 100 9579.6 3.57528
26      742.362 1 2 3 100 9579.6 0.0590619
27      742.362 1 2 3 100 9579.6 2.82603
28      742.362 1 2 3 100 9579.6 5.59299
29      742.362 1 2 3 100 9579.6 2.07677
30      742.362 1 2 3 100 9579.6 4.84373
31      98.1555 8 9 0 240 0 0
32      98.1555 8 9 0 240 0 2.04204
33      98.1555 8 9 0 240 0 6.12611
34      98.1555 8 9 0 240 0 5.96903
35      98.1555 8 9 0 240 0 1.5708
36      98.1555 8 9 0 240 0 5.49779
37      98.1555 8 9 0 240 0 5.18363
38      98.1555 8 9 0 240 0 0.628319
39      98.1555 8 9 0 240 0 4.39823
40      98.1555 8 9 0 240 0 3.92699
41      98.1555 8 9 0 240 0 2.82743
42      742.362 1 2 3 100 -1277.28 0
43      742.362 1 2 3 100 -1277.28 5.91426
44      742.362 1 2 3 100 -1277.28 5.54533
45      742.362 1 2 3 100 -1277.28 5.1764
46      742.362 1 2 3 100 -1277.28 4.80747
47      742.362 1 2 3 100 -1277.28 4.43854
48      742.362 1 2 3 100 -1277.28 4.06961
49      742.362 1 2 3 100 -1277.28 3.70069
50      742.362 1 2 3 100 -1277.28 3.33176
51      742.362 1 2 3 100 -1277.28 2.96283
52      742.362 1 2 3 100 -1277.28 2.5939
53      742.362 1 2 3 100 -1277.28 2.22497
54      742.362 1 2 3 100 -1277.28 1.85604
55      742.362 1 2 3 100 -1277.28 1.48711
56      742.362 1 2 3 100 -1277.28 1.11819
57      742.362 1 2 3 100 -1277.28 0.749257
58      742.362 1 2 3 100 -1277.28 0.380329
59      742.362 1 2 3 100 -1277.28 0.0114002
60      742.362 1 2 3 100 -1277.28 5.92566
61      742.362 1 2 3 100 -1277.28 5.55673
62      742.362 1 2 3 100 -1277.28 5.1878
63      742.362 1 2 3 100 -1277.28 4.81887
64      742.362 1 2 3 100 -1277.28 4.44994
65      742.362 1 2 3 100 -1277.28 4.08101
66      742.362 1 2 3 100 -1277.28 3.71209
67      742.362 1 2 3 100 -1277.28 3.34316
68      742.362 1 2 3 100 -1277.28 2.97423
69      742.362 1 2 3 100 -1277.28 2.6053
70      742.362 1 2 3 100 -1277.28 2.23637
71      742.362 1 2 3 100 -1277.28 1.86744
72      742.362 1 2 3 100 -1149.55 0
73      742.362 1 2 3 100 -1149.55 3.43788
74      742.362 1 2 3 100 -1149.55 0.592566
75      742.362 1 2 3 100 -1149.55 4.03044
76      742.362 1 2 3 100 -1149.55 1.18513
77      742.362 1 2 3 100 -1149.55 4.62301
78      742.362 1 2 3 100 -1149.55 1.7777
79      742.362 1 2 3 100 -1149.55 5.21557
80      742.362 1 2 3 100 -1149.55 2.37026
81      742.362 1 2 3 100 -1149.55 5.80814
82      742.362 1 2 3 100 -1149.55 2.96283
83      742.362 1 2 3 100 -1149.55 0.117519
84      742.362 1 2 3 100 -1149.55 3.55539
85      742.362 1 2 3 100 -1149.55 0.710084
86      742.362 1 2 3 100 -1149.55 4.14796
87      742.362 1 2 3 100 -1149.55 1.30265
88      742.362 1 2 3 100 -1149.55 4.74053
89      742.362 1 2 3 100 -1149.55 1.89522
90      742.362 1 2 3 100 -1149.55 5.33309
91      742.362 1 2 3 100 -1149.55 2.48778
92      742.362 1 2 3 100 -1149.55 5.92566
93      742.362 1 2 3 100 -1149.55 3.08035
94      742.362 1 2 3 100 -1149.55 0.235037
95      742.362 1 2 3 100 -1149.55 3.67291
96      742.362 1 2 3 100 -1149.55 0.827603
97      742.362 1 2 3 100 -1149.55 4.26548
98      742.362 1 2 3 100 -1149.55 1.42017
99      742.362 1 2 3 100 -1149.55 4.85804
100      742.362 1 2 3 100 -1149.55 2.01273
101      742.362 1 2 3 100 -1149.55 5.45061
102      742.362 1 2 3 100 -1021.82 0
103      742.362 1 2 3 100 -1021.82 0.961494
104      742.362 1 2 3 100 -1021.82 1.92299
105      742.362 1 2 3 100 -1021.82 2.88448
106      742.362 1 2 3 100 -1021.82 3.84598
107      742.362 1 2 3 100 -1021.82 4.80747
108      742.362 1 2 3 100 -1021.82 5.76897
109      742.362 1 2 3 100 -1021.82 0.447274
110      742.362 1 2 3 100 -1021.82 1.40877
111      742.362 1 2 3 100 -1021.82 2.37026
112      742.362 1 2 3 100 -1021.82 3.33176
113      742.362 1 2 3 100 -1021.82 4.29325
114      742.362 1 2 3 100 -1021.82 5.25475
115      742.362 1 2 3 100 -1021.82 6.21624
116      742.362 1 2 3 100 -1021.82 0.894549
117      742.362 1 2 3 100 -1021.82 1.85604
118      742.362 1 2 3 100 -1021.82 2.81754
119      742.362 1 2 3 100 -1021.82 3.77903
120      742.362 1 2 3 100 -1021.82 4.74053
121      742.362 1 2 3 100 -1021.82 5.70202
122      742.362 1 2 3 100 -1021.82 0.380329
123      742.362 1 2 3 100 -1021.82 1.34182
124      742.362 1 2 3 100 -1021.82 2.30332
125      742.362 1 2 3 100 -1021.82 3.26481
126      742.362 1 2 3 100 -1021.82 4.22631
127      742.362 1 2 3 100 -1021.82 5.1878
128      742.362 1 2 3 100 -1021.82 6.14929
129      742.362 1 2 3 100 -1021.82 0.827603
130      742.362 1 2 3 100 -1021.82 1.7891
131      742.362 1 2 3 100 -1021.82 2.75059
132      742.362 1 2 3 100 -894.096 0
133      742.362 1 2 3 100 -894.096 4.7683
134      742.362 1 2 3 100 -894.096 3.25341
135      742.362 1 2 3 100 -894.096 1.73852
136      742.362 1 2 3 100 -894.096 0.223637
137      742.362 1 2 3 100 -894.096 4.99194
138      742.362 1 2 3 100 -894.096 3.47705
139      742.362 1 2 3 100 -894.096 1.96216
140      742.362 1 2 3 100 -894.096 0.447274
141      742.362 1 2 3 100 -894.096 5.21557
142      742.362 1 2 3 100 -894.096 3.70069
143      742.362 1 2 3 100 -894.096 2.1858
144      742.362 1 2 3 100 -894.096 0.670911
145      742.362 1 2 3 100 -894.096 5.43921
146      742.362 1 2 3 100 -894.096 3.92432
147      742.362 1 2 3 100 -894.096 2.40944
148      742.362 1 2 3 100 -894.096 0.894549
149      742.362 1 2 3 100 -894.096 5.66285
150      742.362 1 2 3 100 -894.096 4.14796
151      742.362 1 2 3 100 -894.096 2.63307
152      742.362 1 2 3 100 -894.096 1.11819
153      742.362 1 2 3 100 -894.096 5.88648
154      742.362 1 2 3 100 -894.096 4.3716
155      742.362 1 2 3 100 -894.096 2.85671
156      742.362 1 2 3 100 -894.096 1.34182
157      742.362 1 2 3 100 -894.096 6.11012
158      742.362 1 2 3 100 -894.096 4.59523
159      742.362 1 2 3 100 -894.096 3.08035
160      742.362 1 2 3 100 -894.096 1.56546
161      742.362 1 2 3 100 -894.096 0.0505731
162      742.362 1 2 3 100 -766.368 0
163      742.362 1 2 3 100 -766.368 2.29192
164      742.362 1 2 3 100 -766.368 4.58383
165      742.362 1 2 3 100 -766.368 0.592566
166      742.362 1 2 3 100 -766.368 2.88448
167      742.362 1 2 3 100 -766.368 5.1764
168      742.362 1 2 3 100 -766.368 1.18513
169      742.362 1 2 3 100 -766.368 3.47705
170      742.362 1 2 3 100 -766.368 5.76897
171      742.362 1 2 3 100 -766.368 1.7777
172      742.362 1 2 3 100 -766.368 4.06961
173      742.362 1 2 3 100 -766.368 0.0783458
174      742.362 1 2 3 100 -766.368 2.37026
175      742.362 1 2 3 100 -766.368 4.66218
176      742.362 1 2 3 100 -766.368 0.670911
177      742.362 1 2 3 100 -766.368 2.96283
178      742.362 1 2 3 100 -766.368 5.25475
179      742.362 1 2 3 100 -766.368 1.26348
180      742.362 1 2 3 100 -766.368 3.55539
181      742.362 1 2 3 100 -766.368 5.84731
182      742.362 1 2 3 100 -766.368 1.85604
183      742.362 1 2 3 100 -766.368 4.14796
184      742.362 1 2 3 100 -766.368 0.156692
185      742.362 1 2 3 100 -766.368 2.44861
186      742.362 1 2 3 100 -766.368 4.74053
187      742.362 1 2 3 100 -766.368 0.749257
188      742.362 1 2 3 100 -766.368 3.04117
189      742.362 1 2 3 100 -766.368 5.33309
190      742.362 1 2 3 100 -766.368 1.34182
191      742.362 1 2 3 100 -766.368 3.63374
192      742.362 1 2 3 100 -638.64 0
193      742.362 1 2 3 100 -638.64 6.09872
194      742.362 1 2 3 100 -638.64 5.91426
195      742.362 1 2 3 100 -638.64 5.72979
196      742.362 1 2 3 100 -638.64 5.54533
197      742.362 1 2 3 100 -638.64 5.36086
198      742.362 1 2 3 100 -638.64 5.1764
199      742.362 1 2 3 100 -638.64 4.99194
200      742.362 1 2 3 100 -638.64 4.80747
201      742.362 1 2 3 100 -638.64 4.62301
202      742.362 1 2 3 100 -638.64 4.43854
203      742.362 1 2 3 100 -638.64 4.25408
204      742.362 1 2 3 100 -638.64 4.06961
205      742.362 1 2 3 100 -638.64 3.88515
206      742.362 1 2 3 100 -638.64 3.70069
207      742.362 1 2 3 100 -638.64 3.51622
208      742.362 1 2 3 100 -638.64 3.33176
209      742.362 1 2 3 100 -638.64 3.14729
210      742.362 1 2 3 100 -638.64 2.96283
211      742.362 1 2 3 100 -638.64 2.77836
212      742.362 1 2 3 100 -638.64 2.5939
213      742.362 1 2 3 100 -638.64 2.40944
214      742.362 1 2 3 100 -638.64 2.22497
215      742.362 1 2 3 100 -638.64 2.04051
216      742.362 1 2 3 100 -638.64 1.85604
217      742.362 1 2 3 100 -638.64 1.67158
218      742.362 1 2 3 100 -638.64 1.48711
219      742.362 1 2 3 100 -638.64 1.30265
220      742.362 1 2 3 100 -638.64 1.11819
221      742.362 1 2 3 100 -638.64 0.933722
222      742.362 1 2 3 100 -613.094 0
223      742.362 1 2 3 100 -613.094 5.60344
224      742.362 1 2 3 100 -613.094 4.9237
225      742.362 1 2 3 100 -613.094 4.24396
226      742.362 1 2 3 100 -613.094 3.56422
227      742.362 1 2 3 100 -613.094 2.88448
228      742.362 1 2 3 100 -613.094 2.20474
229      742.362 1 2 3 100 -613.094 1.525
230      742.362 1 2 3 100 -613.094 0.845261
231      742.362 1 2 3 100 -613.094 0.165521
232      742.362 1 2 3 100 -613.094 5.76897
233      742.362 1 2 3 100 -613.094 5.08922
234      742.362 1 2 3 100 -613.094 4.40948
235      742.362 1 2 3 100 -613.094 3.72974
236      742.362 1 2 3 100 -613.094 3.05
237      742.362 1 2 3 100 -613.094 2.37026
238      742.362 1 2 3 100 -613.094 1.69052
239      742.362 1 2 3 100 -613.094 1.01078
240      742.362 1 2 3 100 -613.094 0.331041
241      742.362 1 2 3 100 -613.094 5.93449
242      742.362 1 2 3 100 -613.094 5.25475
243      742.362 1 2 3 100 -613.094 4.575
244      742.362 1 2 3 100 -613.094 3.89526
245      742.362 1 2 3 100 -613.094 3.21552
246      742.362 1 2 3 100 -613.094 2.53578
247      742.362 1 2 3 100 -613.094 1.85604
248      742.362 1 2 3 100 -613.094 1.1763
249      742.362 1 2 3 100 -613.094 0.496562
250      742.362 1 2 3 100 -613.094 6.10001
251      742.362 1 2 3 100 -613.094 5.42027
252      742.362 1 2 3 100 -587.549 0
253      742.362 1 2 3 100 -587.549 5.10817
254      742.362 1 2 3 100 -587.549 3.93315
255      742.362 1 2 3 100 -587.549 2.75813
256      742.362 1 2 3 100 -587.549 1.58312
257      742.362 1 2 3 100 -587.549 0.408101
258      742.362 1 2 3 100 -587.549 5.51627
259      742.362 1 2 3 100 -587.549 4.34125
260      742.362 1 2 3 100 -587.549 3.16624
261      742.362 1 2 3 100 -587.549 1.99122
262      742.362 1 2 3 100 -587.549 0.816203
263      742.362 1 2 3 100 -587.549 5.92437
264      742.362 1 2 3 100 -587.549 4.74935
265      742.362 1 2 3 100 -587.549 3.57434
266      742.362 1 2 3 100 -587.549 2.39932
267      742.362 1 2 3 100 -587.549 1.2243
268      742.362 1 2 3 100 -587.549 0.0492875
269      742.362 1 2 3 100 -587.549 5.15746
270      742.362 1 2 3 100 -587.549 3.98244
271      742.362 1 2 3 100 -587.549 2.80742
272      742.362 1 2 3 100 -587.549 1.63241
273      742.362 1 2 3 100 -587.549 0.457389
274      742.362 1 2 3 100 -587.549 5.56556
275      742.362 1 2 3 100 -587.549 4.39054
276      742.362 1 2 3 100 -587.549 3.21552
277      742.362 1 2 3 100 -587.549 2.04051
278      742.362 1 2 3 100 -587.549 0.86549
279      742.362 1 2 3 100 -587.549 5.97366
280      742.362 1 2 3 100 -587.549 4.79864
281      742.362 1 2 3 100 -587.549 3.62363
282      742.362 1 2 3 100 -562.003 0
283      742.362 1 2 3 100 -562.003 4.61289
284      742.362 1 2 3 100 -562.003 2.9426
285      742.362 1 2 3 100 -562.003 1.27231
286      742.362 1 2 3 100 -562.003 5.8852
287      742.362 1 2 3 100 -562.003 4.21491
288      742.362 1 2 3 100 -562.003 2.54461
289      742.362 1 2 3 100 -562.003 0.874319
290      742.362 1 2 3 100 -562.003 5.48721
291      742.362 1 2 3 100 -562.003 3.81692
292      742.362 1 2 3 100 -562.003 2.14663
293      742.362 1 2 3 100 -562.003 0.476333
294      742.362 1 2 3 100 -562.003 5.08922
295      742.362 1 2 3 100 -562.003 3.41893
296      742.362 1 2 3 100 -562.003 1.74864
297      742.362 1 2 3 100 -562.003 0.0783458
298      742.362 1 2 3 100 -562.003 4.69124
299      742.362 1 2 3 100 -562.003 3.02095
300      742.362 1 2 3 100 -562.003 1.35065
301      742.362 1 2 3 100 -562.003 5.96354
302      742.362 1 2 3 100 -562.003 4.29325
303      742.362 1 2 3 100 -562.003 2.62296
304      742.362 1 2 3 100 -562.003 0.952665
305      742.362 1 2 3 100 -562.003 5.56556
306      742.362 1 2 3 100 -562.003 3.89526
307      742.362 1 2 3 100 -562.003 2.22497
308      742.362 1 2 3 100 -562.003 0.554678
309      742.362 1 2 3 100 -562.003 5.16757
310      742.362 1 2 3 100 -562.003 3.49728
311      742.362 1 2 3 100 -562.003 1.82698
312      742.362 1 2 3 100 -536.458 0
313      742.362 1 2 3 100 -536.458 4.11762
314      742.362 1 2 3 100 -536.458 1.95205
315      742.362 1 2 3 100 -536.458 6.06966
316      742.362 1 2 3 100 -536.458 3.90409
317      742.362 1 2 3 100 -536.458 1.73852
318      742.362 1 2 3 100 -536.458 5.85614
319      742.362 1 2 3 100 -536.458 3.69057
320      742.362 1 2 3 100 -536.458 1.525
321      742.362 1 2 3 100 -536.458 5.64262
322      742.362 1 2 3 100 -536.458 3.47705
323      742.362 1 2 3 100 -536.458 1.31148
324      742.362 1 2 3 100 -536.458 5.4291
325      742.362 1 2 3 100 -536.458 3.26353
326      742.362 1 2 3 100 -536.458 1.09796
327      742.362 1 2 3 100 -536.458 5.21557
328      742.362 1 2 3 100 -536.458 3.05
329      742.362 1 2 3 100 -536.458 0.884434
330      742.362 1 2 3 100 -536.458 5.00205
331      742.362 1 2 3 100 -536.458 2.83648
332      742.362 1 2 3 100 -536.458 0.670911
333      742.362 1 2 3 100 -536.458 4.78853
334      742.362 1 2 3 100 -536.458 2.62296
335      742.362 1 2 3 100 -536.458 0.457389
336      742.362 1 2 3 100 -536.458 4.575
337      742.362 1 2 3 100 -536.458 2.40944
338      742.362 1 2 3 100 -536.458 0.243866
339      742.362 1 2 3 100 -536.458 4.36148
340      742.362 1 2 3 100 -536.458 2.19591
341      742.362 1 2 3 100 -536.458 0.0303439
342      742.362 1 2 3 100 -510.912 0
343      742.362 1 2 3 100 -510.912 3.62234
344      742.362 1 2 3 100 -510.912 0.961494
345      742.362 1 2 3 100 -510.912 4.58383
346      742.362 1 2 3 100 -510.912 1.92299
347      742.362 1 2 3 100 -510.912 5.54533
348      742.362 1 2 3 100 -510.912 2.88448
349      742.362 1 2 3 100 -510.912 0.223637
350      742.362 1 2 3 100 -510.912 3.84598
351      742.362 1 2 3 100 -510.912 1.18513
352      742.362 1 2 3 100 -510.912 4.80747
353      742.362 1 2 3 100 -510.912 2.14663
354      742.362 1 2 3 100 -510.912 5.76897
355      742.362 1 2 3 100 -510.912 3.10812
356      742.362 1 2 3 100 -510.912 0.447274
357      742.362 1 2 3 100 -510.912 4.06961
358      742.362 1 2 3 100 -510.912 1.40877
359      742.362 1 2 3 100 -510.912 5.03111
360      742.362 1 2 3 100 -510.912 2.37026
361      742.362 1 2 3 100 -510.912 5.9926
362      742.362 1 2 3 100 -510.912 3.33176
363      742.362 1 2 3 100 -510.912 0.670911
364      742.362 1 2 3 100 -510.912 4.29325
365      742.362 1 2 3 100 -510.912 1.63241
366      742.362 1 2 3 100 -510.912 5.25475
367      742.362 1 2 3 100 -510.912 2.5939
368      742.362 1 2 3 100 -510.912 6.21624
369      742.362 1 2 3 100 -510.912 3.55539
370      742.362 1 2 3 100 -510.912 0.894549
371      742.362 1 2 3 100 -510.912 4.51689
372      742.362 1 2 3 100 -485.366 0
373      742.362 1 2 3 100 -485.366 3.12706
374      742.362 1 2 3 100 -485.366 6.25413
375      742.362 1 2 3 100 -485.366 3.09801
376      742.362 1 2 3 100 -485.366 6.22507
377      742.362 1 2 3 100 -485.366 3.06895
378      742.362 1 2 3 100 -485.366 6.19601
379      742.362 1 2 3 100 -485.366 3.03989
380      742.362 1 2 3 100 -485.366 6.16695
381      742.362 1 2 3 100 -485.366 3.01083
382      742.362 1 2 3 100 -485.366 6.13789
383      742.362 1 2 3 100 -485.366 2.98177
384      742.362 1 2 3 100 -485.366 6.10884
385      742.362 1 2 3 100 -485.366 2.95271
386      742.362 1 2 3 100 -485.366 6.07978
387      742.362 1 2 3 100 -485.366 2.92366
388      742.362 1 2 3 100 -485.366 6.05072
389      742.362 1 2 3 100 -485.366 2.8946
390      742.362 1 2 3 100 -485.366 6.02166
391      742.362 1 2 3 100 -485.366 2.86554
392      742.362 1 2 3 100 -485.366 5.9926
393      742.362 1 2 3 100 -485.366 2.83648
394      742.362 1 2 3 100 -485.366 5.96354
395      742.362 1 2 3 100 -485.366 2.80742
396      742.362 1 2 3 100 -485.366 5.93449
397      742.362 1 2 3 100 -485.366 2.77836
398      742.362 1 2 3 100 -485.366 5.90543
399      742.362 1 2 3 100 -485.366 2.74931
400      742.362 1 2 3 100 -485.366 5.87637
401      742.362 1 2 3 100 -485.366 2.72025
402      742.362 1 2 3 100 -459.821 0
403      742.362 1 2 3 100 -459.821 2.63179
404      742.362 1 2 3 100 -459.821 5.26357
405      742.362 1 2 3 100 -459.821 1.61218
406      742.362 1 2 3 100 -459.821 4.24396
407      742.362 1 2 3 100 -459.821 0.592566
408      742.362 1 2 3 100 -459.821 3.22435
409      742.362 1 2 3 100 -459.821 5.85614
410      742.362 1 2 3 100 -459.821 2.20474
411      742.362 1 2 3 100 -459.821 4.83653
412      742.362 1 2 3 100 -459.821 1.18513
413      742.362 1 2 3 100 -459.821 3.81692
414      742.362 1 2 3 100 -459.821 0.165521
415      742.362 1 2 3 100 -459.821 2.79731
416      742.362 1 2 3 100 -459.821 5.4291
417      742.362 1 2 3 100 -459.821 1.7777
418      742.362 1 2 3 100 -459.821 4.40948
419      742.362 1 2 3 100 -459.821 0.758086
420      742.362 1 2 3 100 -459.821 3.38987
421      742.362 1 2 3 100 -459.821 6.02166
422      742.362 1 2 3 100 -459.821 2.37026
423      742.362 1 2 3 100 -459.821 5.00205
424      742.362 1 2 3 100 -459.821 1.35065
425      742.362 1 2 3 100 -459.821 3.98244
426      742.362 1 2 3 100 -459.821 0.331041
427      742.362 1 2 3 100 -459.821 2.96283
428      742.362 1 2 3 100 -459.821 5.59462
429      742.362 1 2 3 100 -459.821 1.94322
430      742.362 1 2 3 100 -459.821 4.575
431      742.362 1 2 3 100 -459.821 0.923607
432      742.362 1 2 3 100 -434.275 0
433      742.362 1 2 3 100 -434.275 2.13651
434      742.362 1 2 3 100 -434.275 4.27302
435      742.362 1 2 3 100 -434.275 0.126348
436      742.362 1 2 3 100 -434.275 2.26286
437      742.362 1 2 3 100 -434.275 4.39937
438      742.362 1 2 3 100 -434.275 0.252695
439      742.362 1 2 3 100 -434.275 2.38921
440      742.362 1 2 3 100 -434.275 4.52572
441      742.362 1 2 3 100 -434.275 0.379043
442      742.362 1 2 3 100 -434.275 2.51555
443      742.362 1 2 3 100 -434.275 4.65207
444      742.362 1 2 3 100 -434.275 0.505391
445      742.362 1 2 3 100 -434.275 2.6419
446      742.362 1 2 3 100 -434.275 4.77841
447      742.362 1 2 3 100 -434.275 0.631739
448      742.362 1 2 3 100 -434.275 2.76825
449      742.362 1 2 3 100 -434.275 4.90476
450      742.362 1 2 3 100 -434.275 0.758086
451      742.362 1 2 3 100 -434.275 2.8946
452      742.362 1 2 3 100 -434.275 5.03111
453      742.362 1 2 3 100 -434.275 0.884434
454      742.362 1 2 3 100 -434.275 3.02095
455      742.362 1 2 3 100 -434.275 5.15746
456      742.362 1 2 3 100 -434.275 1.01078
457      742.362 1 2 3 100 -434.275 3.14729
458      742.362 1 2 3 100 -434.275 5.2838
459      742.362 1 2 3 100 -434.275 1.13713
460      742.362 1 2 3 100 -434.275 3.27364
461      742.362 1 2 3 100 -434.275 5.41015
462      742.362 1 2 3 100 -408.73 0
