# Pulseq sequence file
# Created by PyPulseq

[VERSION]
major 1
minor 4
revision 2

[DEFINITIONS]
AdcRasterTime 1e-07 
B1peak 1.2 
BlockDurationRaster 1e-05 
DC 0.5 
FOV 0.3 0.3 0.008 
GradientRasterTime 1e-05 
HR 60 
MaxAdcSegmentLength 456 
N_Interleaves 12 
N_Pulses 30 
Name Spiral_CEST_Gauss_ZSPEC_60_bpm 
Nx 128 
Offsets_ppm 75 -10 -9 -8 -7 -6 -5 -4.8 -4.6 -4.4 -4.2 -4 -3.8 -3.6 -3.4 -3.2 -3 -2.8 -2.6 -2.4 -2.2 -2 -1.8 -1.6 -1.4 -1.2 -1 -0.8 -0.6 -0.4 -0.2 0 0.2 0.4 0.6 0.8 1 1.2 1.4 1.6 1.8 2 2.2 2.4 2.6 2.8 3 3.2 3.4 3.6 3.8 4 4.2 4.4 4.6 4.8 5 6 7 8 9 10 
RadiofrequencyRasterTime 1e-06 
Slice_Thickness 0.008 
TotalDuration 918.2564 

# Format of blocks:
# NUM DUR RF  GX  GY  GZ  ADC  EXT
[BLOCKS]
   1 28850   0   0   0   0  0  1
   2 3612   1   0   0   0  0  0
   3 650   0   1   1   1  0  0
   4 2950   0   0   0   0  0  0
   5 3612   2   0   0   0  0  0
   6 650   0   1   1   1  0  0
   7 2950   0   0   0   0  0  0
   8 3612   3   0   0   0  0  0
   9 650   0   1   1   1  0  0
  10 2950   0   0   0   0  0  0
  11 3612   4   0   0   0  0  0
  12 650   0   1   1   1  0  0
  13 2950   0   0   0   0  0  0
  14 3612   5   0   0   0  0  0
  15 650   0   1   1   1  0  0
  16 2950   0   0   0   0  0  0
  17 3612   6   0   0   0  0  0
  18 650   0   1   1   1  0  0
  19 2950   0   0   0   0  0  0
  20 3612   7   0   0   0  0  0
  21 650   0   1   1   1  0  0
  22 2950   0   0   0   0  0  0
  23 3612   8   0   0   0  0  0
  24 650   0   1   1   1  0  0
  25 2950   0   0   0   0  0  0
  26 3612   9   0   0   0  0  0
  27 650   0   1   1   1  0  0
  28 2950   0   0   0   0  0  0
  29 3612  10   0   0   0  0  0
  30 650   0   1   1   1  0  0
  31 2950   0   0   0   0  0  0
  32 3612  11   0   0   0  0  0
  33 650   0   1   1   1  0  0
  34 2950   0   0   0   0  0  0
  35 3612  12   0   0   0  0  0
  36 650   0   1   1   1  0  0
  37 2950   0   0   0   0  0  0
  38 3612  13   0   0   0  0  0
  39 650   0   1   1   1  0  0
  40 2950   0   0   0   0  0  0
  41 3612  14   0   0   0  0  0
  42 650   0   1   1   1  0  0
  43 2950   0   0   0   0  0  0
  44 3612  15   0   0   0  0  0
  45 650   0   1   1   1  0  0
  46 2950   0   0   0   0  0  0
  47 3612  16   0   0   0  0  0
  48 650   0   1   1   1  0  0
  49 2950   0   0   0   0  0  0
  50 3612  17   0   0   0  0  0
  51 650   0   1   1   1  0  0
  52 2950   0   0   0   0  0  0
  53 3612  18   0   0   0  0  0
  54 650   0   1   1   1  0  0
  55 2950   0   0   0   0  0  0
  56 3612  19   0   0   0  0  0
  57 650   0   1   1   1  0  0
  58 2950   0   0   0   0  0  0
  59 3612  20   0   0   0  0  0
  60 650   0   1   1   1  0  0
  61 2950   0   0   0   0  0  0
  62 3612  21   0   0   0  0  0
  63 650   0   1   1   1  0  0
  64 2950   0   0   0   0  0  0
  65 3612  22   0   0   0  0  0
  66 650   0   1   1   1  0  0
  67 2950   0   0   0   0  0  0
  68 3612  23   0   0   0  0  0
  69 650   0   1   1   1  0  0
  70 2950   0   0   0   0  0  0
  71 3612  24   0   0   0  0  0
  72 650   0   1   1   1  0  0
  73 2950   0   0   0   0  0  0
  74 3612  25   0   0   0  0  0
  75 650   0   1   1   1  0  0
  76 2950   0   0   0   0  0  0
  77 3612  26   0   0   0  0  0
  78 650   0   1   1   1  0  0
  79 2950   0   0   0   0  0  0
  80 3612  27   0   0   0  0  0
  81 650   0   1   1   1  0  0
  82 2950   0   0   0   0  0  0
  83 3612  28   0   0   0  0  0
  84 650   0   1   1   1  0  0
  85 2950   0   0   0   0  0  0
  86 3612  29   0   0   0  0  0
  87 650   0   1   1   1  0  0
  88 2950   0   0   0   0  0  0
  89 3612  30   0   0   0  0  0
  90 650   0   1   1   1  0  0
  91 148  31   0   0   2  0  0
  92  79   0   0   0   3  0  0
  93 458   0   4   5   0  1  0
  94  58   0   6   7   8  0  0
  95   4   0   0   0   0  0  0
  96 148  32   0   0   2  0  0
  97  79   0   0   0   3  0  0
  98 458   0   9  10   0  2  0
  99  51   0  11  12   8  0  0
 100  11   0   0   0   0  0  0
 101 148  33   0   0   2  0  0
 102  79   0   0   0   3  0  0
 103 458   0  13  14   0  3  0
 104  61   0  15  16   8  0  0
 105 148  34   0   0   2  0  0
 106  79   0   0   0   3  0  0
 107 458   0  17   4   0  4  0
 108  58   0  18   6   8  0  0
 109   4   0   0   0   0  0  0
 110 148  35   0   0   2  0  0
 111  79   0   0   0   3  0  0
 112 458   0  19   9   0  5  0
 113  51   0  20  11   8  0  0
 114  11   0   0   0   0  0  0
 115 148  36   0   0   2  0  0
 116  79   0   0   0   3  0  0
 117 458   0  21  13   0  6  0
 118  61   0  22  15   8  0  0
 119 148  37   0   0   2  0  0
 120  79   0   0   0   3  0  0
 121 458   0  23  17   0  7  0
 122  58   0  24  18   8  0  0
 123   4   0   0   0   0  0  0
 124 148  38   0   0   2  0  0
 125  79   0   0   0   3  0  0
 126 458   0  25  19   0  8  0
 127  51   0  26  20   8  0  0
 128  11   0   0   0   0  0  0
 129 148  39   0   0   2  0  0
 130  79   0   0   0   3  0  0
 131 458   0  27  21   0  9  0
 132  61   0  28  22   8  0  0
 133 148  40   0   0   2  0  0
 134  79   0   0   0   3  0  0
 135 458   0   5  23   0 10  0
 136  58   0   7  24   8  0  0
 137   4   0   0   0   0  0  0
 138 148  36   0   0   2  0  0
 139  79   0   0   0   3  0  0
 140 458   0  10  25   0  6  0
 141  51   0  12  26   8  0  0
 142  11   0   0   0   0  0  0
 143 148  41   0   0   2  0  0
 144  79   0   0   0   3  0  0
 145 458   0  14  27   0 11  0
 146  61   0  16  28   8  0  0
 147 1250000   0   0   0   0  0  0
 148 28850   0   0   0   0  0  1
 149 3612  42   0   0   0  0  0
 150 650   0   1   1   1  0  0
 151 2950   0   0   0   0  0  0
 152 3612  43   0   0   0  0  0
 153 650   0   1   1   1  0  0
 154 2950   0   0   0   0  0  0
 155 3612  44   0   0   0  0  0
 156 650   0   1   1   1  0  0
 157 2950   0   0   0   0  0  0
 158 3612  45   0   0   0  0  0
 159 650   0   1   1   1  0  0
 160 2950   0   0   0   0  0  0
 161 3612  46   0   0   0  0  0
 162 650   0   1   1   1  0  0
 163 2950   0   0   0   0  0  0
 164 3612  47   0   0   0  0  0
 165 650   0   1   1   1  0  0
 166 2950   0   0   0   0  0  0
 167 3612  48   0   0   0  0  0
 168 650   0   1   1   1  0  0
 169 2950   0   0   0   0  0  0
 170 3612  49   0   0   0  0  0
 171 650   0   1   1   1  0  0
 172 2950   0   0   0   0  0  0
 173 3612  50   0   0   0  0  0
 174 650   0   1   1   1  0  0
 175 2950   0   0   0   0  0  0
 176 3612  51   0   0   0  0  0
 177 650   0   1   1   1  0  0
 178 2950   0   0   0   0  0  0
 179 3612  52   0   0   0  0  0
 180 650   0   1   1   1  0  0
 181 2950   0   0   0   0  0  0
 182 3612  53   0   0   0  0  0
 183 650   0   1   1   1  0  0
 184 2950   0   0   0   0  0  0
 185 3612  54   0   0   0  0  0
 186 650   0   1   1   1  0  0
 187 2950   0   0   0   0  0  0
 188 3612  55   0   0   0  0  0
 189 650   0   1   1   1  0  0
 190 2950   0   0   0   0  0  0
 191 3612  56   0   0   0  0  0
 192 650   0   1   1   1  0  0
 193 2950   0   0   0   0  0  0
 194 3612  57   0   0   0  0  0
 195 650   0   1   1   1  0  0
 196 2950   0   0   0   0  0  0
 197 3612  58   0   0   0  0  0
 198 650   0   1   1   1  0  0
 199 2950   0   0   0   0  0  0
 200 3612  59   0   0   0  0  0
 201 650   0   1   1   1  0  0
 202 2950   0   0   0   0  0  0
 203 3612  60   0   0   0  0  0
 204 650   0   1   1   1  0  0
 205 2950   0   0   0   0  0  0
 206 3612  61   0   0   0  0  0
 207 650   0   1   1   1  0  0
 208 2950   0   0   0   0  0  0
 209 3612  62   0   0   0  0  0
 210 650   0   1   1   1  0  0
 211 2950   0   0   0   0  0  0
 212 3612  63   0   0   0  0  0
 213 650   0   1   1   1  0  0
 214 2950   0   0   0   0  0  0
 215 3612  64   0   0   0  0  0
 216 650   0   1   1   1  0  0
 217 2950   0   0   0   0  0  0
 218 3612  65   0   0   0  0  0
 219 650   0   1   1   1  0  0
 220 2950   0   0   0   0  0  0
 221 3612  66   0   0   0  0  0
 222 650   0   1   1   1  0  0
 223 2950   0   0   0   0  0  0
 224 3612  67   0   0   0  0  0
 225 650   0   1   1   1  0  0
 226 2950   0   0   0   0  0  0
 227 3612  68   0   0   0  0  0
 228 650   0   1   1   1  0  0
 229 2950   0   0   0   0  0  0
 230 3612  69   0   0   0  0  0
 231 650   0   1   1   1  0  0
 232 2950   0   0   0   0  0  0
 233 3612  70   0   0   0  0  0
 234 650   0   1   1   1  0  0
 235 2950   0   0   0   0  0  0
 236 3612  71   0   0   0  0  0
 237 650   0   1   1   1  0  0
 238 148  31   0   0   2  0  0
 239  79   0   0   0   3  0  0
 240 458   0   4   5   0  1  0
 241  58   0   6   7   8  0  0
 242   4   0   0   0   0  0  0
 243 148  32   0   0   2  0  0
 244  79   0   0   0   3  0  0
 245 458   0   9  10   0  2  0
 246  51   0  11  12   8  0  0
 247  11   0   0   0   0  0  0
 248 148  33   0   0   2  0  0
 249  79   0   0   0   3  0  0
 250 458   0  13  14   0  3  0
 251  61   0  15  16   8  0  0
 252 148  34   0   0   2  0  0
 253  79   0   0   0   3  0  0
 254 458   0  17   4   0  4  0
 255  58   0  18   6   8  0  0
 256   4   0   0   0   0  0  0
 257 148  35   0   0   2  0  0
 258  79   0   0   0   3  0  0
 259 458   0  19   9   0  5  0
 260  51   0  20  11   8  0  0
 261  11   0   0   0   0  0  0
 262 148  36   0   0   2  0  0
 263  79   0   0   0   3  0  0
 264 458   0  21  13   0  6  0
 265  61   0  22  15   8  0  0
 266 148  37   0   0   2  0  0
 267  79   0   0   0   3  0  0
 268 458   0  23  17   0  7  0
 269  58   0  24  18   8  0  0
 270   4   0   0   0   0  0  0
 271 148  38   0   0   2  0  0
 272  79   0   0   0   3  0  0
 273 458   0  25  19   0  8  0
 274  51   0  26  20   8  0  0
 275  11   0   0   0   0  0  0
 276 148  39   0   0   2  0  0
 277  79   0   0   0   3  0  0
 278 458   0  27  21   0  9  0
 279  61   0  28  22   8  0  0
 280 148  40   0   0   2  0  0
 281  79   0   0   0   3  0  0
 282 458   0   5  23   0 10  0
 283  58   0   7  24   8  0  0
 284   4   0   0   0   0  0  0
 285 148  36   0   0   2  0  0
 286  79   0   0   0   3  0  0
 287 458   0  10  25   0  6  0
 288  51   0  12  26   8  0  0
 289  11   0   0   0   0  0  0
 290 148  41   0   0   2  0  0
 291  79   0   0   0   3  0  0
 292 458   0  14  27   0 11  0
 293  61   0  16  28   8  0  0
 294 1250000   0   0   0   0  0  0
 295 28850   0   0   0   0  0  1
[RF]
1      51.0912 1 2 0 100 9579.6 0
2      51.0912 1 2 0 100 9579.6 0.0952028
3      51.0912 1 2 0 100 9579.6 0.190406
4      51.0912 1 2 0 100 9579.6 0.285608
5      51.0912 1 2 0 100 9579.6 0.380811
6      51.0912 1 2 0 100 9579.6 0.476014
7      51.0912 1 2 0 100 9579.6 0.571217
8      51.0912 1 2 0 100 9579.6 0.66642
9      51.0912 1 2 0 100 9579.6 0.761623
10      51.0912 1 2 0 100 9579.6 0.856825
11      51.0912 1 2 0 100 9579.6 0.952028
12      51.0912 1 2 0 100 9579.6 1.04723
13      51.0912 1 2 0 100 9579.6 1.14243
14      51.0912 1 2 0 100 9579.6 1.23764
15      51.0912 1 2 0 100 9579.6 1.33284
16      51.0912 1 2 0 100 9579.6 1.42804
17      51.0912 1 2 0 100 9579.6 1.52325
18      51.0912 1 2 0 100 9579.6 1.61845
19      51.0912 1 2 0 100 9579.6 1.71365
20      51.0912 1 2 0 100 9579.6 1.80885
21      51.0912 1 2 0 100 9579.6 1.90406
22      51.0912 1 2 0 100 9579.6 1.99926
23      51.0912 1 2 0 100 9579.6 2.09446
24      51.0912 1 2 0 100 9579.6 2.18966
25      51.0912 1 2 0 100 9579.6 2.28487
26      51.0912 1 2 0 100 9579.6 2.38007
27      51.0912 1 2 0 100 9579.6 2.47527
28      51.0912 1 2 0 100 9579.6 2.57048
29      51.0912 1 2 0 100 9579.6 2.66568
30      51.0912 1 2 0 100 9579.6 2.76088
31      98.1555 3 4 0 240 0 0
32      98.1555 3 4 0 240 0 2.04204
33      98.1555 3 4 0 240 0 6.12611
34      98.1555 3 4 0 240 0 5.96903
35      98.1555 3 4 0 240 0 1.5708
36      98.1555 3 4 0 240 0 5.49779
37      98.1555 3 4 0 240 0 5.18363
38      98.1555 3 4 0 240 0 0.628319
39      98.1555 3 4 0 240 0 4.39823
40      98.1555 3 4 0 240 0 3.92699
41      98.1555 3 4 0 240 0 2.82743
42      51.0912 1 2 0 100 -1277.28 0
43      51.0912 1 2 0 100 -1277.28 5.43273
44      51.0912 1 2 0 100 -1277.28 4.58228
45      51.0912 1 2 0 100 -1277.28 3.73183
46      51.0912 1 2 0 100 -1277.28 2.88138
47      51.0912 1 2 0 100 -1277.28 2.03093
48      51.0912 1 2 0 100 -1277.28 1.18047
49      51.0912 1 2 0 100 -1277.28 0.330023
50      51.0912 1 2 0 100 -1277.28 5.76276
51      51.0912 1 2 0 100 -1277.28 4.9123
52      51.0912 1 2 0 100 -1277.28 4.06185
53      51.0912 1 2 0 100 -1277.28 3.2114
54      51.0912 1 2 0 100 -1277.28 2.36095
55      51.0912 1 2 0 100 -1277.28 1.5105
56      51.0912 1 2 0 100 -1277.28 0.660046
57      51.0912 1 2 0 100 -1277.28 6.09278
58      51.0912 1 2 0 100 -1277.28 5.24233
59      51.0912 1 2 0 100 -1277.28 4.39188
60      51.0912 1 2 0 100 -1277.28 3.54142
61      51.0912 1 2 0 100 -1277.28 2.69097
62      51.0912 1 2 0 100 -1277.28 1.84052
63      51.0912 1 2 0 100 -1277.28 0.990069
64      51.0912 1 2 0 100 -1277.28 0.139617
65      51.0912 1 2 0 100 -1277.28 5.57235
66      51.0912 1 2 0 100 -1277.28 4.7219
67      51.0912 1 2 0 100 -1277.28 3.87145
68      51.0912 1 2 0 100 -1277.28 3.021
69      51.0912 1 2 0 100 -1277.28 2.17054
70      51.0912 1 2 0 100 -1277.28 1.32009
71      51.0912 1 2 0 100 -1277.28 0.46964
72      51.0912 1 2 0 100 -1149.55 0
73      51.0912 1 2 0 100 -1149.55 3.0045
74      51.0912 1 2 0 100 -1149.55 6.00901
75      51.0912 1 2 0 100 -1149.55 2.73033
76      51.0912 1 2 0 100 -1149.55 5.73483
77      51.0912 1 2 0 100 -1149.55 2.45615
78      51.0912 1 2 0 100 -1149.55 5.46066
79      51.0912 1 2 0 100 -1149.55 2.18198
80      51.0912 1 2 0 100 -1149.55 5.18648
81      51.0912 1 2 0 100 -1149.55 1.9078
82      51.0912 1 2 0 100 -1149.55 4.9123
83      51.0912 1 2 0 100 -1149.55 1.63362
84      51.0912 1 2 0 100 -1149.55 4.63813
85      51.0912 1 2 0 100 -1149.55 1.35945
86      51.0912 1 2 0 100 -1149.55 4.36395
87      51.0912 1 2 0 100 -1149.55 1.08527
88      51.0912 1 2 0 100 -1149.55 4.08978
89      51.0912 1 2 0 100 -1149.55 0.811096
90      51.0912 1 2 0 100 -1149.55 3.8156
91      51.0912 1 2 0 100 -1149.55 0.53692
92      51.0912 1 2 0 100 -1149.55 3.54142
93      51.0912 1 2 0 100 -1149.55 0.262744
94      51.0912 1 2 0 100 -1149.55 3.26725
95      51.0912 1 2 0 100 -1149.55 6.27175
96      51.0912 1 2 0 100 -1149.55 2.99307
97      51.0912 1 2 0 100 -1149.55 5.99758
98      51.0912 1 2 0 100 -1149.55 2.7189
99      51.0912 1 2 0 100 -1149.55 5.7234
100      51.0912 1 2 0 100 -1149.55 2.44472
101      51.0912 1 2 0 100 -1149.55 5.44922
102      51.0912 1 2 0 100 -1021.82 0
103      51.0912 1 2 0 100 -1021.82 0.576276
104      51.0912 1 2 0 100 -1021.82 1.15255
105      51.0912 1 2 0 100 -1021.82 1.72883
106      51.0912 1 2 0 100 -1021.82 2.3051
107      51.0912 1 2 0 100 -1021.82 2.88138
108      51.0912 1 2 0 100 -1021.82 3.45765
109      51.0912 1 2 0 100 -1021.82 4.03393
110      51.0912 1 2 0 100 -1021.82 4.61021
111      51.0912 1 2 0 100 -1021.82 5.18648
112      51.0912 1 2 0 100 -1021.82 5.76276
113      51.0912 1 2 0 100 -1021.82 0.055847
114      51.0912 1 2 0 100 -1021.82 0.632123
115      51.0912 1 2 0 100 -1021.82 1.2084
116      51.0912 1 2 0 100 -1021.82 1.78467
117      51.0912 1 2 0 100 -1021.82 2.36095
118      51.0912 1 2 0 100 -1021.82 2.93723
119      51.0912 1 2 0 100 -1021.82 3.5135
120      51.0912 1 2 0 100 -1021.82 4.08978
121      51.0912 1 2 0 100 -1021.82 4.66605
122      51.0912 1 2 0 100 -1021.82 5.24233
123      51.0912 1 2 0 100 -1021.82 5.8186
124      51.0912 1 2 0 100 -1021.82 0.111694
125      51.0912 1 2 0 100 -1021.82 0.68797
126      51.0912 1 2 0 100 -1021.82 1.26425
127      51.0912 1 2 0 100 -1021.82 1.84052
128      51.0912 1 2 0 100 -1021.82 2.4168
129      51.0912 1 2 0 100 -1021.82 2.99307
130      51.0912 1 2 0 100 -1021.82 3.56935
131      51.0912 1 2 0 100 -1021.82 4.14562
132      51.0912 1 2 0 100 -894.096 0
133      51.0912 1 2 0 100 -894.096 4.43123
134      51.0912 1 2 0 100 -894.096 2.57928
135      51.0912 1 2 0 100 -894.096 0.727325
136      51.0912 1 2 0 100 -894.096 5.15856
137      51.0912 1 2 0 100 -894.096 3.3066
138      51.0912 1 2 0 100 -894.096 1.45465
139      51.0912 1 2 0 100 -894.096 5.88588
140      51.0912 1 2 0 100 -894.096 4.03393
141      51.0912 1 2 0 100 -894.096 2.18198
142      51.0912 1 2 0 100 -894.096 0.330023
143      51.0912 1 2 0 100 -894.096 4.76126
144      51.0912 1 2 0 100 -894.096 2.9093
145      51.0912 1 2 0 100 -894.096 1.05735
146      51.0912 1 2 0 100 -894.096 5.48858
147      51.0912 1 2 0 100 -894.096 3.63663
148      51.0912 1 2 0 100 -894.096 1.78467
149      51.0912 1 2 0 100 -894.096 6.21591
150      51.0912 1 2 0 100 -894.096 4.36395
151      51.0912 1 2 0 100 -894.096 2.512
152      51.0912 1 2 0 100 -894.096 0.660046
153      51.0912 1 2 0 100 -894.096 5.09128
154      51.0912 1 2 0 100 -894.096 3.23932
155      51.0912 1 2 0 100 -894.096 1.38737
156      51.0912 1 2 0 100 -894.096 5.8186
157      51.0912 1 2 0 100 -894.096 3.96665
158      51.0912 1 2 0 100 -894.096 2.1147
159      51.0912 1 2 0 100 -894.096 0.262744
160      51.0912 1 2 0 100 -894.096 4.69398
161      51.0912 1 2 0 100 -894.096 2.84202
162      51.0912 1 2 0 100 -766.368 0
163      51.0912 1 2 0 100 -766.368 2.003
164      51.0912 1 2 0 100 -766.368 4.00601
165      51.0912 1 2 0 100 -766.368 6.00901
166      51.0912 1 2 0 100 -766.368 1.72883
167      51.0912 1 2 0 100 -766.368 3.73183
168      51.0912 1 2 0 100 -766.368 5.73483
169      51.0912 1 2 0 100 -766.368 1.45465
170      51.0912 1 2 0 100 -766.368 3.45765
171      51.0912 1 2 0 100 -766.368 5.46066
172      51.0912 1 2 0 100 -766.368 1.18047
173      51.0912 1 2 0 100 -766.368 3.18348
174      51.0912 1 2 0 100 -766.368 5.18648
175      51.0912 1 2 0 100 -766.368 0.906299
176      51.0912 1 2 0 100 -766.368 2.9093
177      51.0912 1 2 0 100 -766.368 4.9123
178      51.0912 1 2 0 100 -766.368 0.632123
179      51.0912 1 2 0 100 -766.368 2.63513
180      51.0912 1 2 0 100 -766.368 4.63813
181      51.0912 1 2 0 100 -766.368 0.357947
182      51.0912 1 2 0 100 -766.368 2.36095
183      51.0912 1 2 0 100 -766.368 4.36395
184      51.0912 1 2 0 100 -766.368 0.0837704
185      51.0912 1 2 0 100 -766.368 2.08677
186      51.0912 1 2 0 100 -766.368 4.08978
187      51.0912 1 2 0 100 -766.368 6.09278
188      51.0912 1 2 0 100 -766.368 1.8126
189      51.0912 1 2 0 100 -766.368 3.8156
190      51.0912 1 2 0 100 -766.368 5.8186
191      51.0912 1 2 0 100 -766.368 1.53842
192      51.0912 1 2 0 100 -638.64 0
193      51.0912 1 2 0 100 -638.64 5.85796
194      51.0912 1 2 0 100 -638.64 5.43273
195      51.0912 1 2 0 100 -638.64 5.00751
196      51.0912 1 2 0 100 -638.64 4.58228
197      51.0912 1 2 0 100 -638.64 4.15706
198      51.0912 1 2 0 100 -638.64 3.73183
199      51.0912 1 2 0 100 -638.64 3.3066
200      51.0912 1 2 0 100 -638.64 2.88138
201      51.0912 1 2 0 100 -638.64 2.45615
202      51.0912 1 2 0 100 -638.64 2.03093
203      51.0912 1 2 0 100 -638.64 1.6057
204      51.0912 1 2 0 100 -638.64 1.18047
205      51.0912 1 2 0 100 -638.64 0.755249
206      51.0912 1 2 0 100 -638.64 0.330023
207      51.0912 1 2 0 100 -638.64 6.18798
208      51.0912 1 2 0 100 -638.64 5.76276
209      51.0912 1 2 0 100 -638.64 5.33753
210      51.0912 1 2 0 100 -638.64 4.9123
211      51.0912 1 2 0 100 -638.64 4.48708
212      51.0912 1 2 0 100 -638.64 4.06185
213      51.0912 1 2 0 100 -638.64 3.63663
214      51.0912 1 2 0 100 -638.64 3.2114
215      51.0912 1 2 0 100 -638.64 2.78618
216      51.0912 1 2 0 100 -638.64 2.36095
217      51.0912 1 2 0 100 -638.64 1.93572
218      51.0912 1 2 0 100 -638.64 1.5105
219      51.0912 1 2 0 100 -638.64 1.08527
220      51.0912 1 2 0 100 -638.64 0.660046
221      51.0912 1 2 0 100 -638.64 0.23482
222      51.0912 1 2 0 100 -613.094 0
223      51.0912 1 2 0 100 -613.094 5.37231
224      51.0912 1 2 0 100 -613.094 4.46144
225      51.0912 1 2 0 100 -613.094 3.55057
226      51.0912 1 2 0 100 -613.094 2.6397
227      51.0912 1 2 0 100 -613.094 1.72883
228      51.0912 1 2 0 100 -613.094 0.817955
229      51.0912 1 2 0 100 -613.094 6.19027
230      51.0912 1 2 0 100 -613.094 5.2794
231      51.0912 1 2 0 100 -613.094 4.36853
232      51.0912 1 2 0 100 -613.094 3.45765
233      51.0912 1 2 0 100 -613.094 2.54678
234      51.0912 1 2 0 100 -613.094 1.63591
235      51.0912 1 2 0 100 -613.094 0.725039
236      51.0912 1 2 0 100 -613.094 6.09735
237      51.0912 1 2 0 100 -613.094 5.18648
238      51.0912 1 2 0 100 -613.094 4.27561
239      51.0912 1 2 0 100 -613.094 3.36474
240      51.0912 1 2 0 100 -613.094 2.45387
241      51.0912 1 2 0 100 -613.094 1.54299
242      51.0912 1 2 0 100 -613.094 0.632123
243      51.0912 1 2 0 100 -613.094 6.00444
244      51.0912 1 2 0 100 -613.094 5.09356
245      51.0912 1 2 0 100 -613.094 4.18269
246      51.0912 1 2 0 100 -613.094 3.27182
247      51.0912 1 2 0 100 -613.094 2.36095
248      51.0912 1 2 0 100 -613.094 1.45008
249      51.0912 1 2 0 100 -613.094 0.539206
250      51.0912 1 2 0 100 -613.094 5.91152
251      51.0912 1 2 0 100 -613.094 5.00065
252      51.0912 1 2 0 100 -587.549 0
253      51.0912 1 2 0 100 -587.549 4.88667
254      51.0912 1 2 0 100 -587.549 3.49015
255      51.0912 1 2 0 100 -587.549 2.09363
256      51.0912 1 2 0 100 -587.549 0.697115
257      51.0912 1 2 0 100 -587.549 5.58378
258      51.0912 1 2 0 100 -587.549 4.18727
259      51.0912 1 2 0 100 -587.549 2.79075
260      51.0912 1 2 0 100 -587.549 1.39423
261      51.0912 1 2 0 100 -587.549 6.2809
262      51.0912 1 2 0 100 -587.549 4.88438
263      51.0912 1 2 0 100 -587.549 3.48786
264      51.0912 1 2 0 100 -587.549 2.09135
265      51.0912 1 2 0 100 -587.549 0.694829
266      51.0912 1 2 0 100 -587.549 5.5815
267      51.0912 1 2 0 100 -587.549 4.18498
268      51.0912 1 2 0 100 -587.549 2.78846
269      51.0912 1 2 0 100 -587.549 1.39194
270      51.0912 1 2 0 100 -587.549 6.27861
271      51.0912 1 2 0 100 -587.549 4.88209
272      51.0912 1 2 0 100 -587.549 3.48558
273      51.0912 1 2 0 100 -587.549 2.08906
274      51.0912 1 2 0 100 -587.549 0.692543
275      51.0912 1 2 0 100 -587.549 5.57921
276      51.0912 1 2 0 100 -587.549 4.18269
277      51.0912 1 2 0 100 -587.549 2.78618
278      51.0912 1 2 0 100 -587.549 1.38966
279      51.0912 1 2 0 100 -587.549 6.27633
280      51.0912 1 2 0 100 -587.549 4.87981
281      51.0912 1 2 0 100 -587.549 3.48329
282      51.0912 1 2 0 100 -562.003 0
283      51.0912 1 2 0 100 -562.003 4.40102
284      51.0912 1 2 0 100 -562.003 2.51886
285      51.0912 1 2 0 100 -562.003 0.636696
286      51.0912 1 2 0 100 -562.003 5.03772
287      51.0912 1 2 0 100 -562.003 3.15555
288      51.0912 1 2 0 100 -562.003 1.27339
289      51.0912 1 2 0 100 -562.003 5.67441
290      51.0912 1 2 0 100 -562.003 3.79225
291      51.0912 1 2 0 100 -562.003 1.91009
292      51.0912 1 2 0 100 -562.003 0.0279235
293      51.0912 1 2 0 100 -562.003 4.42895
294      51.0912 1 2 0 100 -562.003 2.54678
295      51.0912 1 2 0 100 -562.003 0.664619
296      51.0912 1 2 0 100 -562.003 5.06564
297      51.0912 1 2 0 100 -562.003 3.18348
298      51.0912 1 2 0 100 -562.003 1.30131
299      51.0912 1 2 0 100 -562.003 5.70234
300      51.0912 1 2 0 100 -562.003 3.82017
301      51.0912 1 2 0 100 -562.003 1.93801
302      51.0912 1 2 0 100 -562.003 0.055847
303      51.0912 1 2 0 100 -562.003 4.45687
304      51.0912 1 2 0 100 -562.003 2.57471
305      51.0912 1 2 0 100 -562.003 0.692543
306      51.0912 1 2 0 100 -562.003 5.09356
307      51.0912 1 2 0 100 -562.003 3.2114
308      51.0912 1 2 0 100 -562.003 1.32924
309      51.0912 1 2 0 100 -562.003 5.73026
310      51.0912 1 2 0 100 -562.003 3.8481
311      51.0912 1 2 0 100 -562.003 1.96593
312      51.0912 1 2 0 100 -536.458 0
313      51.0912 1 2 0 100 -536.458 3.91538
314      51.0912 1 2 0 100 -536.458 1.54757
315      51.0912 1 2 0 100 -536.458 5.46294
316      51.0912 1 2 0 100 -536.458 3.09513
317      51.0912 1 2 0 100 -536.458 0.727325
318      51.0912 1 2 0 100 -536.458 4.6427
319      51.0912 1 2 0 100 -536.458 2.27489
320      51.0912 1 2 0 100 -536.458 6.19027
321      51.0912 1 2 0 100 -536.458 3.82246
322      51.0912 1 2 0 100 -536.458 1.45465
323      51.0912 1 2 0 100 -536.458 5.37003
324      51.0912 1 2 0 100 -536.458 3.00222
325      51.0912 1 2 0 100 -536.458 0.634409
326      51.0912 1 2 0 100 -536.458 4.54979
327      51.0912 1 2 0 100 -536.458 2.18198
328      51.0912 1 2 0 100 -536.458 6.09735
329      51.0912 1 2 0 100 -536.458 3.72954
330      51.0912 1 2 0 100 -536.458 1.36173
331      51.0912 1 2 0 100 -536.458 5.27711
332      51.0912 1 2 0 100 -536.458 2.9093
333      51.0912 1 2 0 100 -536.458 0.541493
334      51.0912 1 2 0 100 -536.458 4.45687
335      51.0912 1 2 0 100 -536.458 2.08906
336      51.0912 1 2 0 100 -536.458 6.00444
337      51.0912 1 2 0 100 -536.458 3.63663
338      51.0912 1 2 0 100 -536.458 1.26882
339      51.0912 1 2 0 100 -536.458 5.18419
340      51.0912 1 2 0 100 -536.458 2.81639
341      51.0912 1 2 0 100 -536.458 0.448576
342      51.0912 1 2 0 100 -510.912 0
343      51.0912 1 2 0 100 -510.912 3.42973
344      51.0912 1 2 0 100 -510.912 0.576276
345      51.0912 1 2 0 100 -510.912 4.00601
346      51.0912 1 2 0 100 -510.912 1.15255
347      51.0912 1 2 0 100 -510.912 4.58228
348      51.0912 1 2 0 100 -510.912 1.72883
349      51.0912 1 2 0 100 -510.912 5.15856
350      51.0912 1 2 0 100 -510.912 2.3051
351      51.0912 1 2 0 100 -510.912 5.73483
352      51.0912 1 2 0 100 -510.912 2.88138
353      51.0912 1 2 0 100 -510.912 0.0279235
354      51.0912 1 2 0 100 -510.912 3.45765
355      51.0912 1 2 0 100 -510.912 0.604199
356      51.0912 1 2 0 100 -510.912 4.03393
357      51.0912 1 2 0 100 -510.912 1.18047
358      51.0912 1 2 0 100 -510.912 4.61021
359      51.0912 1 2 0 100 -510.912 1.75675
360      51.0912 1 2 0 100 -510.912 5.18648
361      51.0912 1 2 0 100 -510.912 2.33303
362      51.0912 1 2 0 100 -510.912 5.76276
363      51.0912 1 2 0 100 -510.912 2.9093
364      51.0912 1 2 0 100 -510.912 0.055847
365      51.0912 1 2 0 100 -510.912 3.48558
366      51.0912 1 2 0 100 -510.912 0.632123
367      51.0912 1 2 0 100 -510.912 4.06185
368      51.0912 1 2 0 100 -510.912 1.2084
369      51.0912 1 2 0 100 -510.912 4.63813
370      51.0912 1 2 0 100 -510.912 1.78467
371      51.0912 1 2 0 100 -510.912 5.2144
372      51.0912 1 2 0 100 -485.366 0
373      51.0912 1 2 0 100 -485.366 2.94408
374      51.0912 1 2 0 100 -485.366 5.88817
375      51.0912 1 2 0 100 -485.366 2.54907
376      51.0912 1 2 0 100 -485.366 5.49315
377      51.0912 1 2 0 100 -485.366 2.15405
378      51.0912 1 2 0 100 -485.366 5.09814
379      51.0912 1 2 0 100 -485.366 1.75904
380      51.0912 1 2 0 100 -485.366 4.70312
381      51.0912 1 2 0 100 -485.366 1.36402
382      51.0912 1 2 0 100 -485.366 4.30811
383      51.0912 1 2 0 100 -485.366 0.969005
384      51.0912 1 2 0 100 -485.366 3.91309
385      51.0912 1 2 0 100 -485.366 0.573989
386      51.0912 1 2 0 100 -485.366 3.51807
387      51.0912 1 2 0 100 -485.366 0.178973
388      51.0912 1 2 0 100 -485.366 3.12306
389      51.0912 1 2 0 100 -485.366 6.06714
390      51.0912 1 2 0 100 -485.366 2.72804
391      51.0912 1 2 0 100 -485.366 5.67213
392      51.0912 1 2 0 100 -485.366 2.33303
393      51.0912 1 2 0 100 -485.366 5.27711
394      51.0912 1 2 0 100 -485.366 1.93801
395      51.0912 1 2 0 100 -485.366 4.88209
396      51.0912 1 2 0 100 -485.366 1.54299
397      51.0912 1 2 0 100 -485.366 4.48708
398      51.0912 1 2 0 100 -485.366 1.14798
399      51.0912 1 2 0 100 -485.366 4.09206
400      51.0912 1 2 0 100 -485.366 0.752962
401      51.0912 1 2 0 100 -485.366 3.69705
402      51.0912 1 2 0 100 -459.821 0
403      51.0912 1 2 0 100 -459.821 2.45844
404      51.0912 1 2 0 100 -459.821 4.91688
405      51.0912 1 2 0 100 -459.821 1.09213
406      51.0912 1 2 0 100 -459.821 3.55057
407      51.0912 1 2 0 100 -459.821 6.00901
408      51.0912 1 2 0 100 -459.821 2.18426
409      51.0912 1 2 0 100 -459.821 4.6427
410      51.0912 1 2 0 100 -459.821 0.817955
411      51.0912 1 2 0 100 -459.821 3.27639
412      51.0912 1 2 0 100 -459.821 5.73483
413      51.0912 1 2 0 100 -459.821 1.91009
414      51.0912 1 2 0 100 -459.821 4.36853
415      51.0912 1 2 0 100 -459.821 0.543779
416      51.0912 1 2 0 100 -459.821 3.00222
417      51.0912 1 2 0 100 -459.821 5.46066
418      51.0912 1 2 0 100 -459.821 1.63591
419      51.0912 1 2 0 100 -459.821 4.09435
420      51.0912 1 2 0 100 -459.821 0.269603
421      51.0912 1 2 0 100 -459.821 2.72804
422      51.0912 1 2 0 100 -459.821 5.18648
423      51.0912 1 2 0 100 -459.821 1.36173
424      51.0912 1 2 0 100 -459.821 3.82017
425      51.0912 1 2 0 100 -459.821 6.27861
426      51.0912 1 2 0 100 -459.821 2.45387
427      51.0912 1 2 0 100 -459.821 4.9123
428      51.0912 1 2 0 100 -459.821 1.08756
429      51.0912 1 2 0 100 -459.821 3.546
430      51.0912 1 2 0 100 -459.821 6.00444
431      51.0912 1 2 0 100 -459.821 2.17969
432      51.0912 1 2 0 100 -434.275 0
433      51.0912 1 2 0 100 -434.275 1.97279
434      51.0912 1 2 0 100 -434.275 3.94559
435      51.0912 1 2 0 100 -434.275 5.91838
436      51.0912 1 2 0 100 -434.275 1.60799
437      51.0912 1 2 0 100 -434.275 3.58078
438      51.0912 1 2 0 100 -434.275 5.55357
439      51.0912 1 2 0 100 -434.275 1.24318
440      51.0912 1 2 0 100 -434.275 3.21597
441      51.0912 1 2 0 100 -434.275 5.18877
442      51.0912 1 2 0 100 -434.275 0.878375
443      51.0912 1 2 0 100 -434.275 2.85117
444      51.0912 1 2 0 100 -434.275 4.82396
445      51.0912 1 2 0 100 -434.275 0.513569
446      51.0912 1 2 0 100 -434.275 2.48636
447      51.0912 1 2 0 100 -434.275 4.45916
448      51.0912 1 2 0 100 -434.275 0.148763
449      51.0912 1 2 0 100 -434.275 2.12156
450      51.0912 1 2 0 100 -434.275 4.09435
451      51.0912 1 2 0 100 -434.275 6.06714
452      51.0912 1 2 0 100 -434.275 1.75675
453      51.0912 1 2 0 100 -434.275 3.72954
454      51.0912 1 2 0 100 -434.275 5.70234
455      51.0912 1 2 0 100 -434.275 1.39194
456      51.0912 1 2 0 100 -434.275 3.36474
457      51.0912 1 2 0 100 -434.275 5.33753
458      51.0912 1 2 0 100 -434.275 1.02714
459      51.0912 1 2 0 100 -434.275 2.99993
460      51.0912 1 2 0 100 -434.275 4.97272
461      51.0912 1 2 0 100 -434.275 0.662333
462      51.0912 1 2 0 100 -408.73 0
