# Pulseq sequence file
# Created by PyPulseq

[VERSION]
major 1
minor 4
revision 2

[DEFINITIONS]
AdcRasterTime 1e-07 
BlockDurationRaster 1e-05 
GradientRasterTime 1e-05 
RadiofrequencyRasterTime 1e-06 
TotalDuration 76.70714 

# Format of blocks:
# NUM DUR RF  GX  GY  GZ  ADC  EXT
[BLOCKS]
   1 39165   0   0   0   0  0  1
   2  62   1   0   0   0  0  0
   3 110   0   0   0   0  0  0
   4  62   1   0   0   0  0  0
   5  15   0   0   0   0  0  0
   6 112   2   0   0   0  0  0
   7  15   0   0   0   0  0  0
   8  62   1   0   0   0  0  0
   9 270   0   0   0   0  0  0
  10  62   1   0   0   0  0  0
  11  15   0   0   0   0  0  0
  12 112   2   0   0   0  0  0
  13  15   0   0   0   0  0  0
  14  62   1   0   0   0  0  0
  15 270   0   0   0   0  0  0
  16  62   3   0   0   0  0  0
  17  15   0   0   0   0  0  0
  18 112   4   0   0   0  0  0
  19  15   0   0   0   0  0  0
  20  62   3   0   0   0  0  0
  21 270   0   0   0   0  0  0
  22  62   3   0   0   0  0  0
  23  15   0   0   0   0  0  0
  24 112   4   0   0   0  0  0
  25  15   0   0   0   0  0  0
  26  62   3   0   0   0  0  0
  27  60   0   0   0   0  0  0
  28 162   5   0   0   0  0  0
  29  15   0   0   0   0  0  0
  30 212   6   0   0   0  0  0
  31 720   0   0   0   1  0  0
  32 116   7   0   0   2  0  0
  33  61   0   0   0   3  0  0
  34 894   0   4   5   0  1  0
  35  26   0   6   7   8  0  0
  36 116   8   0   0   2  0  0
  37  61   0   0   0   3  0  0
  38 894   0   9  10   0  1  0
  39  26   0  11  12   8  0  0
  40 116   9   0   0   2  0  0
  41  61   0   0   0   3  0  0
  42 894   0  13  14   0  1  0
  43  26   0  15  16   8  0  0
  44 116  10   0   0   2  0  0
  45  61   0   0   0   3  0  0
  46 894   0  17  18   0  1  0
  47  26   0  19  20   8  0  0
  48 116  11   0   0   2  0  0
  49  61   0   0   0   3  0  0
  50 894   0  21  22   0  1  0
  51  26   0  23  24   8  0  0
  52 116   9   0   0   2  0  0
  53  61   0   0   0   3  0  0
  54 894   0  25  26   0  1  0
  55  26   0  27  28   8  0  0
  56 116  12   0   0   2  0  0
  57  61   0   0   0   3  0  0
  58 894   0  29  30   0  1  0
  59  26   0  31  32   8  0  0
  60 116  13   0   0   2  0  0
  61  61   0   0   0   3  0  0
  62 894   0  33  34   0  1  0
  63  26   0  35  36   8  0  0
  64 116  14   0   0   2  0  0
  65  61   0   0   0   3  0  0
  66 894   0  37  38   0  1  0
  67  26   0  39  40   8  0  0
  68 116   7   0   0   2  0  0
  69  61   0   0   0   3  0  0
  70 894   0  41  42   0  1  0
  71  26   0  43  44   8  0  0
  72 42987   0   0   0   0  0  0
  73 71514   0   0   0   0  0  2
  74 20012  15   0   0   0  0  0
  75 650   0  45  45  45  0  0
  76 4350   0   0   0   0  0  0
  77 20012  16   0   0   0  0  0
  78 650   0  45  45  45  0  0
  79 4350   0   0   0   0  0  0
  80 20012  17   0   0   0  0  0
  81 650   0  45  45  45  0  0
  82 116  18   0   0   2  0  0
  83  61   0   0   0   3  0  0
  84 894   0  46  47   0  1  0
  85  26   0  48  49   8  0  0
  86 116  12   0   0   2  0  0
  87  61   0   0   0   3  0  0
  88 894   0  50  51   0  1  0
  89  26   0  52  53   8  0  0
  90 116  19   0   0   2  0  0
  91  61   0   0   0   3  0  0
  92 894   0  54  55   0  1  0
  93  26   0  56  57   8  0  0
  94 116  20   0   0   2  0  0
  95  61   0   0   0   3  0  0
  96 894   0  58  59   0  1  0
  97  26   0  60  61   8  0  0
  98 116  21   0   0   2  0  0
  99  61   0   0   0   3  0  0
 100 894   0  62  63   0  1  0
 101  26   0  64  65   8  0  0
 102 116  22   0   0   2  0  0
 103  61   0   0   0   3  0  0
 104 894   0  66  67   0  1  0
 105  26   0  68  69   8  0  0
 106 116  18   0   0   2  0  0
 107  61   0   0   0   3  0  0
 108 894   0  70  71   0  1  0
 109  26   0  72  73   8  0  0
 110 116  20   0   0   2  0  0
 111  61   0   0   0   3  0  0
 112 894   0  74  75   0  1  0
 113  26   0  76  77   8  0  0
 114 116  23   0   0   2  0  0
 115  61   0   0   0   3  0  0
 116 894   0  78  79   0  1  0
 117  26   0  80  81   8  0  0
 118 116  10   0   0   2  0  0
 119  61   0   0   0   3  0  0
 120 894   0  82  83   0  1  0
 121  26   0  84  85   8  0  0
 122 43275   0   0   0   0  0  0
 123 71514   0   0   0   0  0  2
 124 20012  24   0   0   0  0  0
 125 650   0  45  45  45  0  0
 126 4350   0   0   0   0  0  0
 127 20012  25   0   0   0  0  0
 128 650   0  45  45  45  0  0
 129 4350   0   0   0   0  0  0
 130 20012  26   0   0   0  0  0
 131 650   0  45  45  45  0  0
 132 116  27   0   0   2  0  0
 133  61   0   0   0   3  0  0
 134 894   0  86  87   0  1  0
 135  26   0  88  89   8  0  0
 136 116  21   0   0   2  0  0
 137  61   0   0   0   3  0  0
 138 894   0  90  91   0  1  0
 139  26   0  92  93   8  0  0
 140 116  18   0   0   2  0  0
 141  61   0   0   0   3  0  0
 142 894   0  94  95   0  1  0
 143  26   0  96  97   8  0  0
 144 116  28   0   0   2  0  0
 145  61   0   0   0   3  0  0
 146 894   0  98  99   0  1  0
 147  26   0 100 101   8  0  0
 148 116  12   0   0   2  0  0
 149  61   0   0   0   3  0  0
 150 894   0 102 103   0  1  0
 151  26   0 104 105   8  0  0
 152 116   9   0   0   2  0  0
 153  61   0   0   0   3  0  0
 154 894   0 106 107   0  1  0
 155  26   0 108 109   8  0  0
 156 116  23   0   0   2  0  0
 157  61   0   0   0   3  0  0
 158 894   0 110 111   0  1  0
 159  26   0 112 113   8  0  0
 160 116  21   0   0   2  0  0
 161  61   0   0   0   3  0  0
 162 894   0 114 115   0  1  0
 163  26   0 116 117   8  0  0
 164 116  21   0   0   2  0  0
 165  61   0   0   0   3  0  0
 166 894   0 118 119   0  1  0
 167  26   0 120 121   8  0  0
 168 116  23   0   0   2  0  0
 169  61   0   0   0   3  0  0
 170 894   0 122 123   0  1  0
 171  26   0 124 125   8  0  0
 172 34436   0   0   0   0  0  0
 173 71514   0   0   0   0  0  2
 174 20012  29   0   0   0  0  0
 175 650   0  45  45  45  0  0
 176 4350   0   0   0   0  0  0
 177 20012  30   0   0   0  0  0
 178 650   0  45  45  45  0  0
 179 4350   0   0   0   0  0  0
 180 20012  31   0   0   0  0  0
 181 650   0  45  45  45  0  0
 182 116  10   0   0   2  0  0
 183  61   0   0   0   3  0  0
 184 894   0 126 127   0  1  0
 185  26   0 128 129   8  0  0
 186 116  23   0   0   2  0  0
 187  61   0   0   0   3  0  0
 188 894   0 130 131   0  1  0
 189  26   0 132 133   8  0  0
 190 116  23   0   0   2  0  0
 191  61   0   0   0   3  0  0
 192 894   0 134 135   0  1  0
 193  26   0 136 137   8  0  0
 194 116  18   0   0   2  0  0
 195  61   0   0   0   3  0  0
 196 894   0 138 139   0  1  0
 197  26   0 140 141   8  0  0
 198 116   8   0   0   2  0  0
 199  61   0   0   0   3  0  0
 200 894   0 142 143   0  1  0
 201  26   0 144 145   8  0  0
 202 116  23   0   0   2  0  0
 203  61   0   0   0   3  0  0
 204 894   0 146 147   0  1  0
 205  26   0 148 149   8  0  0
 206 116  23   0   0   2  0  0
 207  61   0   0   0   3  0  0
 208 894   0 150 151   0  1  0
 209  26   0 152 153   8  0  0
 210 116  27   0   0   2  0  0
 211  61   0   0   0   3  0  0
 212 894   0 154 155   0  1  0
 213  26   0 156 157   8  0  0
 214 116  23   0   0   2  0  0
 215  61   0   0   0   3  0  0
 216 894   0 158 159   0  1  0
 217  26   0 160 161   8  0  0
 218 116  10   0   0   2  0  0
 219  61   0   0   0   3  0  0
 220 894   0 162 163   0  1  0
 221  26   0 164 165   8  0  0
 222 15493   0   0   0   0  0  0
 223 71514   0   0   0   0  0  2
 224 20012  32   0   0   0  0  0
 225 650   0  45  45  45  0  0
 226 4350   0   0   0   0  0  0
 227 20012  33   0   0   0  0  0
 228 650   0  45  45  45  0  0
 229 4350   0   0   0   0  0  0
 230 20012  34   0   0   0  0  0
 231 650   0  45  45  45  0  0
 232 116  18   0   0   2  0  0
 233  61   0   0   0   3  0  0
 234 894   0 166 167   0  1  0
 235  26   0 168 169   8  0  0
 236 116  21   0   0   2  0  0
 237  61   0   0   0   3  0  0
 238 894   0 170 171   0  1  0
 239  26   0 172 173   8  0  0
 240 116  35   0   0   2  0  0
 241  61   0   0   0   3  0  0
 242 894   0 174 175   0  1  0
 243  26   0 176 177   8  0  0
 244 116  21   0   0   2  0  0
 245  61   0   0   0   3  0  0
 246 894   0 178 179   0  1  0
 247  26   0 180 181   8  0  0
 248 116  22   0   0   2  0  0
 249  61   0   0   0   3  0  0
 250 894   0 182 183   0  1  0
 251  26   0 184 185   8  0  0
 252 116  10   0   0   2  0  0
 253  61   0   0   0   3  0  0
 254 894   0 186 187   0  1  0
 255  26   0 188 189   8  0  0
 256 116   8   0   0   2  0  0
 257  61   0   0   0   3  0  0
 258 894   0 190 191   0  1  0
 259  26   0 192 193   8  0  0
 260 116  36   0   0   2  0  0
 261  61   0   0   0   3  0  0
 262 894   0 194 195   0  1  0
 263  26   0 196 197   8  0  0
 264 116  28   0   0   2  0  0
 265  61   0   0   0   3  0  0
 266 894   0 198 199   0  1  0
 267  26   0 200 201   8  0  0
 268 116  14   0   0   2  0  0
 269  61   0   0   0   3  0  0
 270 894   0 202 203   0  1  0
 271  26   0 204 205   8  0  0
 272 15005   0   0   0   0  0  0
 273 71514   0   0   0   0  0  2
 274 20012  37   0   0   0  0  0
 275 650   0  45  45  45  0  0
 276 4350   0   0   0   0  0  0
 277 20012  38   0   0   0  0  0
 278 650   0  45  45  45  0  0
 279 4350   0   0   0   0  0  0
 280 20012  39   0   0   0  0  0
 281 650   0  45  45  45  0  0
 282 116  28   0   0   2  0  0
 283  61   0   0   0   3  0  0
 284 894   0 206 207   0  1  0
 285  26   0 208 209   8  0  0
 286 116  10   0   0   2  0  0
 287  61   0   0   0   3  0  0
 288 894   0 210 211   0  1  0
 289  26   0 212 213   8  0  0
 290 116  22   0   0   2  0  0
 291  61   0   0   0   3  0  0
 292 894   0 214 215   0  1  0
 293  26   0 216 217   8  0  0
 294 116  40   0   0   2  0  0
 295  61   0   0   0   3  0  0
 296 894   0 218 219   0  1  0
 297  26   0 220 221   8  0  0
 298 116  10   0   0   2  0  0
 299  61   0   0   0   3  0  0
 300 894   0 222 223   0  1  0
 301  26   0 224 225   8  0  0
 302 116  13   0   0   2  0  0
 303  61   0   0   0   3  0  0
 304 894   0 226 227   0  1  0
 305  26   0 228 229   8  0  0
 306 116   7   0   0   2  0  0
 307  61   0   0   0   3  0  0
 308 894   0 230 231   0  1  0
 309  26   0 232 233   8  0  0
 310 116  40   0   0   2  0  0
 311  61   0   0   0   3  0  0
[RF]
1          500 1 2 3 100 0 0
2          500 1 2 4 100 0 1.5708
3          500 1 2 3 100 0 3.14159
4          500 1 2 4 100 0 4.71239
5          500 1 2 5 100 0 0
6          500 1 6 7 100 0 0
7      582.393 8 9 0 180 0 0
8      388.262 8 9 0 180 0 0
9      471.461 8 9 0 180 0 0
10      610.126 8 9 0 180 0 0
11      194.131 8 9 0 180 0 0
12      138.665 8 9 0 180 0 0
13      360.529 8 9 0 180 0 0
14      499.194 8 9 0 180 0 0
15      52.7942 1 2 65 100 255.456 0
16      52.7942 1 2 65 100 255.456 0.573027
17      52.7942 1 2 65 100 255.456 1.14605
18      665.592 8 9 0 180 0 0
19      166.398 8 9 0 180 0 0
20      221.864 8 9 0 180 0 0
21       554.66 8 9 0 180 0 0
22      332.796 8 9 0 180 0 0
23      637.859 8 9 0 180 0 0
24      119.213 1 2 65 100 255.456 0
25      119.213 1 2 65 100 255.456 0.573027
26      119.213 1 2 65 100 255.456 1.14605
27      415.995 8 9 0 180 0 0
28      526.927 8 9 0 180 0 0
29      127.302 1 2 65 100 255.456 0
30      127.302 1 2 65 100 255.456 0.573027
31      127.302 1 2 65 100 255.456 1.14605
32      105.588 1 2 65 100 255.456 0
33      105.588 1 2 65 100 255.456 0.573027
34      105.588 1 2 65 100 255.456 1.14605
35      443.728 8 9 0 180 0 0
36      249.597 8 9 0 180 0 0
37      59.6064 1 2 65 100 255.456 0
38      59.6064 1 2 65 100 255.456 0.573027
39      59.6064 1 2 65 100 255.456 1.14605
40       277.33 8 9 0 180 0 0
41      152.848 1 2 65 100 255.456 0
42      152.848 1 2 65 100 255.456 0.573027
43      152.848 1 2 65 100 255.456 1.14605
44      305.063 8 9 0 180 0 0
45      93.2414 1 2 65 100 255.456 0
46      93.2414 1 2 65 100 255.456 0.573027
47      93.2414 1 2 65 100 255.456 1.14605
48      206.068 1 2 65 100 255.456 0
49      206.068 1 2 65 100 255.456 0.573027
50      206.068 1 2 65 100 255.456 1.14605
51       54.923 1 2 65 100 255.456 0
52       54.923 1 2 65 100 255.456 0.573027
53       54.923 1 2 65 100 255.456 1.14605
54      157.105 1 2 65 100 255.456 0
55      157.105 1 2 65 100 255.456 0.573027
56      157.105 1 2 65 100 255.456 1.14605
57      186.909 1 2 65 100 255.456 0
58      186.909 1 2 65 100 255.456 0.573027
59      186.909 1 2 65 100 255.456 1.14605
60       72.805 1 2 65 100 255.456 0
61       72.805 1 2 65 100 255.456 0.573027
62       72.805 1 2 65 100 255.456 1.14605
63      63.0125 1 2 65 100 255.456 0
64      63.0125 1 2 65 100 255.456 0.573027
65      63.0125 1 2 65 100 255.456 1.14605
66      171.156 1 2 65 100 255.456 0
67      171.156 1 2 65 100 255.456 0.573027
68      171.156 1 2 65 100 255.456 1.14605
69      155.402 1 2 65 100 255.456 0
70      155.402 1 2 65 100 255.456 0.573027
71      155.402 1 2 65 100 255.456 1.14605
72      89.4096 1 2 65 100 255.456 0
73      89.4096 1 2 65 100 255.456 0.573027
74      89.4096 1 2 65 100 255.456 1.14605
75      205.642 1 2 65 100 255.456 0
76      205.642 1 2 65 100 255.456 0.573027
77      205.642 1 2 65 100 255.456 1.14605
78      99.2021 1 2 65 100 255.456 0
79      99.2021 1 2 65 100 255.456 0.573027
80      99.2021 1 2 65 100 255.456 1.14605
81      166.472 1 2 65 100 255.456 0
82      166.472 1 2 65 100 255.456 0.573027
83      166.472 1 2 65 100 255.456 1.14605
84       128.58 1 2 65 100 255.456 0
85       128.58 1 2 65 100 255.456 0.573027
86       128.58 1 2 65 100 255.456 1.14605
87      163.918 1 2 65 100 255.456 0
88      163.918 1 2 65 100 255.456 0.573027
89      163.918 1 2 65 100 255.456 1.14605
90       170.73 1 2 65 100 255.456 0
91       170.73 1 2 65 100 255.456 0.573027
92       170.73 1 2 65 100 255.456 1.14605
93      29.8032 1 2 65 100 255.456 0
94      29.8032 1 2 65 100 255.456 0.573027
95      29.8032 1 2 65 100 255.456 1.14605
96      43.8533 1 2 65 100 255.456 0
97      43.8533 1 2 65 100 255.456 0.573027
98      43.8533 1 2 65 100 255.456 1.14605
99      34.4866 1 2 65 100 255.456 0
100      34.4866 1 2 65 100 255.456 0.573027
101      34.4866 1 2 65 100 255.456 1.14605
102      68.1216 1 2 65 100 255.456 0
103      68.1216 1 2 65 100 255.456 0.573027
104      68.1216 1 2 65 100 255.456 1.14605
105      112.401 1 2 65 100 255.456 0
106      112.401 1 2 65 100 255.456 0.573027
107      112.401 1 2 65 100 255.456 1.14605
108       201.81 1 2 65 100 255.456 0
109       201.81 1 2 65 100 255.456 0.573027
110       201.81 1 2 65 100 255.456 1.14605

# Format of arbitrary gradients:
#   time_shape_id of 0 means default timing (stepping with grad_raster starting at 1/2 of grad_raster)
# id amplitude amp_shape_id time_shape_id delay
# ..      Hz/m       ..         ..          us
[GRADIENTS]
4  -1.2416e+06 10 0 10
5  1.23843e+06 11 0 10
6       555122 12 13 0
7       136283 14 15 0
9  1.23984e+06 16 0 10
10 -1.24106e+06 17 0 10
11      -356017 18 19 0
12      -464044 20 21 0
13 -1.23633e+06 22 0 10
14 -1.24205e+06 23 0 10
15     -71792.3 24 25 0
16       563557 26 13 0
17  1.23898e+06 27 0 10
18  1.24132e+06 28 0 10
19       433614 29 30 0
20      -367054 31 32 0
21  1.24123e+06 33 0 10
22 -1.23884e+06 34 0 10
23      -567675 35 13 0
24     -55580.8 36 25 0
25 -1.24179e+06 37 0 10
26  1.23624e+06 38 0 10
27       403558 39 40 0
28       399864 41 42 0
29  1.24101e+06 43 0 10
30   1.2397e+06 44 0 10
31      -113030 45 46 0
32      -567447 47 13 0
33 -1.23846e+06 48 0 10
34  -1.2417e+06 49 0 10
35      -363052 50 51 0
36       436971 52 53 0
37 -1.23731e+06 54 0 10
38  1.24195e+06 55 0 10
39       562873 56 13 0
40      -151207 57 58 0
41  1.24034e+06 59 0 10
42 -1.24043e+06 60 0 10
43      -467038 61 62 0
44      -323459 63 64 0
46  -1.2416e+06 10 0 10
47  1.23843e+06 11 0 10
48       205258 66 67 0
49       553988 68 13 0
50  1.23984e+06 16 0 10
51 -1.24106e+06 17 0 10
52       281390 69 70 0
53      -493528 71 72 0
54 -1.23633e+06 22 0 10
55 -1.24205e+06 23 0 10
56      -540861 73 74 0
57       230997 75 76 0
58  1.23898e+06 27 0 10
59  1.24132e+06 28 0 10
60       516239 77 72 0
61       241219 78 79 0
62  1.24123e+06 33 0 10
63 -1.23884e+06 34 0 10
64      -277705 80 79 0
65      -523593 81 72 0
66 -1.24179e+06 37 0 10
67  1.23624e+06 38 0 10
68      -208603 82 83 0
69       534997 84 85 0
70  1.24101e+06 43 0 10
71   1.2397e+06 44 0 10
72       502314 86 72 0
73      -297515 87 70 0
74 -1.23846e+06 48 0 10
75  -1.2417e+06 49 0 10
76      -549658 88 13 0
77      -143620 89 90 0
78 -1.23731e+06 54 0 10
79  1.24195e+06 55 0 10
80       315924 91 92 0
81       477189 93 62 0
82  1.24034e+06 59 0 10
83 -1.24043e+06 60 0 10
84      95171.6 94 46 0
85      -560109 95 13 0
86  -1.2416e+06 10 0 10
87  1.23843e+06 11 0 10
88      -448410 96 53 0
89       353572 97 51 0
90  1.23984e+06 16 0 10
91 -1.24106e+06 17 0 10
92       566271 98 13 0
93      45684.1 99 0 0
94 -1.23633e+06 22 0 10
95 -1.24205e+06 23 0 10
96      -388855 100 42 0
97      -416197 101 40 0
98  1.23898e+06 27 0 10
99  1.24132e+06 28 0 10
100      90722.3 102 103 0
101       568097 104 13 0
102  1.24123e+06 33 0 10
103 -1.23884e+06 34 0 10
104       380796 105 32 0
105      -421597 106 30 0
106 -1.24179e+06 37 0 10
107  1.23624e+06 38 0 10
108      -565572 107 13 0
109       130943 108 109 0
110  1.24101e+06 43 0 10
111   1.2397e+06 44 0 10
112       453274 110 21 0
113       342480 111 19 0
114 -1.23846e+06 48 0 10
115  -1.2417e+06 49 0 10
116      -162663 112 90 0
117      -558717 113 13 0
118 -1.23731e+06 54 0 10
119  1.24195e+06 55 0 10
120      -301541 114 115 0
121       481480 116 117 0
122  1.24034e+06 59 0 10
123 -1.24043e+06 60 0 10
124       547582 118 13 0
125      -190468 119 120 0
126  -1.2416e+06 10 0 10
127  1.23843e+06 11 0 10
128      -505999 121 72 0
129      -265086 122 123 0
130  1.23984e+06 16 0 10
131 -1.24106e+06 17 0 10
132       253440 124 79 0
133       532254 125 126 0
134 -1.23633e+06 22 0 10
135 -1.24205e+06 23 0 10
136       213387 127 76 0
137      -526643 128 126 0
138  1.23898e+06 27 0 10
139  1.24132e+06 28 0 10
140      -512851 129 72 0
141       276260 130 70 0
142  1.24123e+06 33 0 10
143 -1.23884e+06 34 0 10
144       543254 131 13 0
145       177592 132 67 0
146 -1.24179e+06 37 0 10
147  1.23624e+06 38 0 10
148      -318364 133 64 0
149      -489520 134 117 0
150  1.24101e+06 43 0 10
151   1.2397e+06 44 0 10
152      -131952 135 15 0
153       555705 136 13 0
154 -1.23846e+06 48 0 10
155  -1.2417e+06 49 0 10
156       462440 137 21 0
157      -358284 138 19 0
158 -1.23731e+06 54 0 10
159  1.24195e+06 55 0 10
160      -563900 139 13 0
161     -69042.2 140 25 0
162  1.24034e+06 59 0 10
163 -1.24043e+06 60 0 10
164       372420 141 42 0
165       431819 142 30 0
166  -1.2416e+06 10 0 10
167  1.23843e+06 11 0 10
168      68984.2 143 144 0
169      -567777 145 13 0
170  1.23984e+06 16 0 10
171 -1.24106e+06 17 0 10
172      -397891 146 42 0
173       406391 147 30 0
174 -1.23633e+06 22 0 10
175 -1.24205e+06 23 0 10
176       567306 148 13 0
177      -117699 149 46 0
178  1.23898e+06 27 0 10
179  1.24132e+06 28 0 10
180      -438737 150 53 0
181      -360916 151 19 0
182  1.24123e+06 33 0 10
183 -1.23884e+06 34 0 10
184       154887 152 58 0
185       562491 153 13 0
186 -1.24179e+06 37 0 10
187  1.23624e+06 38 0 10
188       321177 154 64 0
189      -468610 155 62 0
190  1.24101e+06 43 0 10
191   1.2397e+06 44 0 10
192      -553368 156 13 0
193       208746 157 67 0
194 -1.23846e+06 48 0 10
195  -1.2417e+06 49 0 10
196       494895 158 72 0
197       278979 159 70 0
198 -1.23731e+06 54 0 10
199  1.24195e+06 55 0 10
200      -233969 160 76 0
201      -540007 161 74 0
202  1.24034e+06 59 0 10
203 -1.24043e+06 60 0 10
204      -238301 162 79 0
205       517390 163 72 0
206  -1.2416e+06 10 0 10
207  1.23843e+06 11 0 10
208       522511 164 72 0
209      -257160 165 166 0
210  1.23984e+06 16 0 10
211 -1.24106e+06 17 0 10
212      -535923 167 85 0
213      -205215 168 83 0
214 -1.23633e+06 22 0 10
215 -1.24205e+06 23 0 10
216       299991 169 70 0
217       501014 170 72 0
218  1.23898e+06 27 0 10
219  1.24132e+06 28 0 10
220       144457 171 58 0
221      -550352 172 13 0
222  1.24123e+06 33 0 10
223 -1.23884e+06 34 0 10
224      -475680 173 62 0
225       318106 174 92 0
226 -1.24179e+06 37 0 10
227  1.23624e+06 38 0 10
228       560566 175 13 0
229      92282.4 176 46 0
230  1.24101e+06 43 0 10
231   1.2397e+06 44 0 10
232      -355620 177 51 0
233      -446703 178 53 0
234 -1.23846e+06 48 0 10
235  -1.2417e+06 49 0 10
236     -42921.2 179 0 0
237       566487 180 13 0
238 -1.23731e+06 54 0 10
239  1.24195e+06 55 0 10
240       414306 181 40 0
241      -390752 182 42 0
242  1.24034e+06 59 0 10
243 -1.24043e+06 60 0 10
244      -568071 183 13 0
245      95889.8 184 103 0
246  -1.2416e+06 10 0 10
247  1.23843e+06 11 0 10
248       423450 185 30 0
249       378735 186 32 0
250  1.23984e+06 16 0 10
251 -1.24106e+06 17 0 10
252      -134808 187 109 0
253      -565304 188 13 0
254 -1.23633e+06 22 0 10
255 -1.24205e+06 23 0 10
256      -340265 189 19 0
257       454940 190 62 0
258  1.23898e+06 27 0 10
259  1.24132e+06 28 0 10
260       558208 191 13 0
261      -165849 192 90 0
262  1.24123e+06 33 0 10
263 -1.23884e+06 34 0 10
264      -482946 193 117 0
265      -299188 194 115 0
266 -1.24179e+06 37 0 10
267  1.23624e+06 38 0 10
268       193217 195 120 0
269       546837 196 13 0
270  1.24101e+06 43 0 10
271   1.2397e+06 44 0 10
272       255821 197 166 0
273      -507253 198 72 0
274 -1.23846e+06 48 0 10
275  -1.2417e+06 49 0 10
276      -531279 199 126 0
277       256327 200 79 0
278 -1.23731e+06 54 0 10
279  1.24195e+06 55 0 10
280       527676 201 126 0
281       210494 202 76 0
282  1.24034e+06 59 0 10
283 -1.24043e+06 60 0 10
284      -278794 203 70 0
285      -511652 204 72 0
286  -1.2416e+06 10 0 10
287  1.23843e+06 11 0 10
288      -174064 205 67 0
289       544059 206 13 0
290  1.23984e+06 16 0 10
291 -1.24106e+06 17 0 10
292       488107 207 62 0
293      -320768 208 64 0
294 -1.23633e+06 22 0 10
295 -1.24205e+06 23 0 10
296      -556274 209 13 0
297      -127618 210 15 0
298  1.23898e+06 27 0 10
299  1.24132e+06 28 0 10
300       338009 211 51 0
301       460824 212 21 0
302  1.24123e+06 33 0 10
303 -1.23884e+06 34 0 10
304      66290.5 213 25 0
305      -564230 214 13 0
306 -1.24179e+06 37 0 10
307  1.23624e+06 38 0 10
308      -430013 215 30 0
309       374394 216 42 0
310  1.24101e+06 43 0 10
311   1.2397e+06 44 0 10
312       567865 217 13 0
313      69400.6 218 25 0
314 -1.23846e+06 48 0 10
315  -1.2417e+06 49 0 10
316      -408205 219 30 0
317      -395908 220 42 0
318 -1.23731e+06 54 0 10
319  1.24195e+06 55 0 10
320       122365 221 46 0
321       567152 222 13 0
322  1.24034e+06 59 0 10
323 -1.24043e+06 60 0 10
324       358771 223 19 0
325      -440492 224 53 0
326  -1.2416e+06 10 0 10
327  1.23843e+06 11 0 10
328      -562095 225 13 0
329       158562 226 58 0
330  1.23984e+06 16 0 10
331 -1.24106e+06 17 0 10
332       470172 227 62 0
333       318887 228 64 0
334 -1.23633e+06 22 0 10
335 -1.24205e+06 23 0 10
336      -212228 229 67 0
337      -552734 230 13 0
338  1.23898e+06 27 0 10
339  1.24132e+06 28 0 10
340      -286060 231 123 0
341       496250 232 72 0
342  1.24123e+06 33 0 10
343 -1.23884e+06 34 0 10
344       539140 233 74 0
345      -236936 234 76 0
346 -1.24179e+06 37 0 10
347  1.23624e+06 38 0 10
348      -518529 235 126 0
349      -235377 236 79 0
350  1.24101e+06 43 0 10
351   1.2397e+06 44 0 10
352       259752 237 166 0
353       521417 238 72 0
354 -1.23846e+06 48 0 10
355  -1.2417e+06 49 0 10
356       201823 239 83 0
357      -536836 240 85 0
358 -1.23731e+06 54 0 10
359  1.24195e+06 55 0 10
360      -499701 241 117 0
361       302460 242 70 0
362  1.24034e+06 59 0 10
363 -1.24043e+06 60 0 10
364       551033 243 13 0
365       140768 244 58 0
366  -1.2416e+06 10 0 10
367  1.23843e+06 11 0 10
368      -320280 245 92 0
369      -474159 246 62 0
370  1.23984e+06 16 0 10
371 -1.24106e+06 17 0 10
372     -89546.7 247 46 0
373       561010 248 13 0
374 -1.23633e+06 22 0 10
375 -1.24205e+06 23 0 10
376       444985 249 53 0
377      -357659 250 51 0
378  1.23898e+06 27 0 10
379  1.24132e+06 28 0 10
380      -566690 251 13 0
381     -40157.2 252 0 0
382  1.24123e+06 33 0 10
383 -1.23884e+06 34 0 10
384       392639 253 42 0
385       412404 254 40 0
386 -1.24179e+06 37 0 10
387  1.23624e+06 38 0 10
388      -101055 255 103 0
389      -568031 256 13 0
390  1.24101e+06 43 0 10
391   1.2397e+06 44 0 10
392      -376665 257 32 0
393       425293 258 30 0
394 -1.23846e+06 48 0 10
395  -1.2417e+06 49 0 10
396       565022 259 13 0
397      -138670 260 109 0
398 -1.23731e+06 54 0 10
399  1.24195e+06 55 0 10
400      -456594 261 62 0
401      -338041 262 19 0
402  1.24034e+06 59 0 10
403 -1.24043e+06 60 0 10
404       169030 263 90 0
405       557686 264 13 0
406  -1.2416e+06 10 0 10
407  1.23843e+06 11 0 10
408       296829 265 115 0
409      -484400 266 117 0
410  1.23984e+06 16 0 10
411 -1.24106e+06 17 0 10
412      -546080 267 13 0
413       195962 268 120 0
414 -1.23633e+06 22 0 10
415 -1.24205e+06 23 0 10
416       508495 269 72 0
417       253343 270 166 0
418  1.23898e+06 27 0 10
419  1.24132e+06 28 0 10
420      -259209 271 79 0
421      -530291 272 126 0
422  1.24123e+06 33 0 10
423 -1.23884e+06 34 0 10
424      -207918 273 76 0
425       528697 274 126 0
426 -1.24179e+06 37 0 10
427  1.23624e+06 38 0 10
428       510442 275 72 0
429      -281322 276 70 0
430  1.24101e+06 43 0 10
431   1.2397e+06 44 0 10
432      -544850 277 13 0
433      -170532 278 67 0
434 -1.23846e+06 48 0 10
435  -1.2417e+06 49 0 10
436       323165 279 64 0
437       486683 280 62 0
438 -1.23731e+06 54 0 10
439  1.24195e+06 55 0 10
440       123281 281 15 0
441      -556831 282 13 0
442  1.24034e+06 59 0 10
443 -1.24043e+06 60 0 10
444      -459198 283 21 0
445       340118 284 51 0
446  -1.2416e+06 10 0 10
447  1.23843e+06 11 0 10
448       564547 285 13 0
449      63537.3 286 25 0
450  1.23984e+06 16 0 10
451 -1.24106e+06 17 0 10
452      -376358 287 42 0
453      -428196 288 30 0
454 -1.23633e+06 22 0 10
455 -1.24205e+06 23 0 10
456     -80954.1 289 144 0
457       567940 290 13 0
458  1.23898e+06 27 0 10
459  1.24132e+06 28 0 10
460       393916 291 42 0
461      -410009 292 30 0
462  1.24123e+06 33 0 10
463 -1.23884e+06 34 0 10
464      -566984 293 13 0
465       127029 294 46 0
466 -1.24179e+06 37 0 10
467  1.23624e+06 38 0 10
468       442237 295 53 0
469       356618 296 19 0
470  1.24101e+06 43 0 10
471   1.2397e+06 44 0 10
472      -162234 297 58 0
473      -561686 298 13 0
474 -1.23846e+06 48 0 10
475  -1.2417e+06 49 0 10
476      -316590 299 64 0
477       471722 300 62 0
478 -1.23731e+06 54 0 10
479  1.24195e+06 55 0 10
480       552087 301 13 0
481      -191738 302 303 0
482  1.24034e+06 59 0 10
483 -1.24043e+06 60 0 10
484      -497593 304 72 0
485      -283275 305 123 0
486  -1.2416e+06 10 0 10
487  1.23843e+06 11 0 10
488       239897 306 76 0
489       538260 307 74 0
490  1.23984e+06 16 0 10
491 -1.24106e+06 17 0 10
492       232448 308 79 0
493      -519655 309 126 0
494 -1.23633e+06 22 0 10
495 -1.24205e+06 23 0 10
496      -520310 310 72 0
497       262337 311 166 0
498  1.23898e+06 27 0 10
499  1.24132e+06 28 0 10
500       537737 312 85 0
501       198426 313 83 0
502  1.24123e+06 33 0 10
503 -1.23884e+06 34 0 10
504      -283142 314 115 0
505      -498377 315 117 0
506 -1.24179e+06 37 0 10
507  1.23624e+06 38 0 10
508      -137075 316 58 0
509       551701 317 13 0
510  1.24101e+06 43 0 10
511   1.2397e+06 44 0 10
512       472627 318 62 0
513      -322447 319 92 0
514 -1.23846e+06 48 0 10
515  -1.2417e+06 49 0 10
516      -561440 320 13 0
517     -86808.9 321 46 0
518 -1.23731e+06 54 0 10
519  1.24195e+06 55 0 10
520       359690 322 51 0
521       443257 323 53 0
522  1.24034e+06 59 0 10
523 -1.24043e+06 60 0 10
524      45314.8 324 0 0
525      -566879 325 13 0
526  -1.2416e+06 10 0 10
527  1.23843e+06 11 0 10
528      -410493 326 40 0
529       394517 327 42 0
530  1.23984e+06 16 0 10
531 -1.24106e+06 17 0 10
532       567978 328 13 0
533      -106218 329 103 0
534 -1.23633e+06 22 0 10
535 -1.24205e+06 23 0 10
536      -427125 330 30 0
537      -374586 331 32 0
538  1.23898e+06 27 0 10
539  1.24132e+06 28 0 10
540       142528 332 109 0
541       564727 333 13 0
542  1.24123e+06 33 0 10
543 -1.23884e+06 34 0 10
544       335810 334 92 0
545      -458238 335 62 0
546 -1.24179e+06 37 0 10
547  1.23624e+06 38 0 10
548      -557151 336 13 0
549       172208 337 90 0
550  1.24101e+06 43 0 10
551   1.2397e+06 44 0 10
552       485842 338 117 0
553       294462 339 115 0
554 -1.23846e+06 48 0 10
555  -1.2417e+06 49 0 10
556      -198703 340 120 0
557      -545309 341 85 0
558 -1.23731e+06 54 0 10
559  1.24195e+06 55 0 10
560      -250860 342 166 0
561       509725 343 72 0
562  1.24034e+06 59 0 10
563 -1.24043e+06 60 0 10
564       529291 344 126 0
565      -262084 345 79 0
566  -1.2416e+06 10 0 10
567  1.23843e+06 11 0 10
568      -529705 346 74 0
569      -205336 347 76 0
570  1.23984e+06 16 0 10
571 -1.24106e+06 17 0 10
572       283842 348 70 0
573       509219 349 72 0
574 -1.23633e+06 22 0 10
575 -1.24205e+06 23 0 10
576       166996 350 67 0
577      -545628 351 13 0
578  1.23898e+06 27 0 10
579  1.24132e+06 28 0 10
580      -485248 352 62 0
581       325554 353 64 0
582  1.24123e+06 33 0 10
583 -1.23884e+06 34 0 10
584       557373 354 13 0
585       109932 355 109 0
586 -1.24179e+06 37 0 10
587  1.23624e+06 38 0 10
588      -342220 356 51 0
589      -457561 357 21 0
590  1.24101e+06 43 0 10
591   1.2397e+06 44 0 10
592     -60782.5 358 25 0
593       564850 359 13 0
594 -1.23846e+06 48 0 10
595  -1.2417e+06 49 0 10
596       426370 360 30 0
597      -378314 361 42 0
598 -1.23731e+06 54 0 10
599  1.24195e+06 55 0 10
600      -568001 362 13 0
601     -62410.3 363 103 0
602  1.24034e+06 59 0 10
603 -1.24043e+06 60 0 10
604       411804 364 30 0
605       391914 365 42 0
606  -1.2416e+06 10 0 10
607  1.23843e+06 11 0 10
608      -131689 366 46 0
609      -566803 367 13 0
610  1.23984e+06 16 0 10
611 -1.24106e+06 17 0 10
612      -354457 368 19 0
613       443972 369 21 0
614 -1.23633e+06 22 0 10
615 -1.24205e+06 23 0 10
616       561264 370 13 0
