# Pulseq sequence file
# Created by PyPulseq

[VERSION]
major 1
minor 4
revision 2

[DEFINITIONS]
AdcRasterTime 1e-07 
B0 3 
B1peak 3.7 
BlockDurationRaster 1e-05 
FOV 0.3 0.3 0.008 
GradientRasterTime 1e-05 
HR 60 
MaxAdcSegmentLength 456 
N_Interleaves 12 
N_Pulses 1 
Name Spiral_WASABI_60_bpm 
Nx 128 
Offsets_ppm -75 -4 -3.73 -3.46 -3.2 -2.93 -2.67 -2.4 -2.13 -1.86 -1.6 -1.33 -1.06 -0.8 -0.53 -0.26 0 0.26 0.53 0.8 1.06 1.33 1.67 1.86 2.13 2.4 2.66 2.93 3.2 3.46 3.73 4 
RadiofrequencyRasterTime 1e-06 
Slice_Thickness 0.008 
TotalDuration 90.87184 
tp 0.00512 

# Format of blocks:
# NUM DUR RF  GX  GY  GZ  ADC  EXT
[BLOCKS]
   1 41228   0   0   0   0  0  1
   2 524   1   0   0   0  0  0
   3 450   0   1   1   1  0  0
   4 148   2   0   0   2  0  0
   5  79   0   0   0   3  0  0
   6 458   0   4   5   0  1  0
   7  58   0   6   7   8  0  0
   8   4   0   0   0   0  0  0
   9 148   3   0   0   2  0  0
  10  79   0   0   0   3  0  0
  11 458   0   9  10   0  2  0
  12  51   0  11  12   8  0  0
  13  11   0   0   0   0  0  0
  14 148   4   0   0   2  0  0
  15  79   0   0   0   3  0  0
  16 458   0  13  14   0  3  0
  17  61   0  15  16   8  0  0
  18 148   5   0   0   2  0  0
  19  79   0   0   0   3  0  0
  20 458   0  17   4   0  4  0
  21  58   0  18   6   8  0  0
  22   4   0   0   0   0  0  0
  23 148   6   0   0   2  0  0
  24  79   0   0   0   3  0  0
  25 458   0  19   9   0  5  0
  26  51   0  20  11   8  0  0
  27  11   0   0   0   0  0  0
  28 148   7   0   0   2  0  0
  29  79   0   0   0   3  0  0
  30 458   0  21  13   0  6  0
  31  61   0  22  15   8  0  0
  32 148   8   0   0   2  0  0
  33  79   0   0   0   3  0  0
  34 458   0  23  17   0  7  0
  35  58   0  24  18   8  0  0
  36   4   0   0   0   0  0  0
  37 148   9   0   0   2  0  0
  38  79   0   0   0   3  0  0
  39 458   0  25  19   0  8  0
  40  51   0  26  20   8  0  0
  41  11   0   0   0   0  0  0
  42 148  10   0   0   2  0  0
  43  79   0   0   0   3  0  0
  44 458   0  27  21   0  9  0
  45  61   0  28  22   8  0  0
  46 148  11   0   0   2  0  0
  47  79   0   0   0   3  0  0
  48 458   0   5  23   0 10  0
  49  58   0   7  24   8  0  0
  50   4   0   0   0   0  0  0
  51 148   7   0   0   2  0  0
  52  79   0   0   0   3  0  0
  53 458   0  10  25   0  6  0
  54  51   0  12  26   8  0  0
  55  11   0   0   0   0  0  0
  56 148  12   0   0   2  0  0
  57  79   0   0   0   3  0  0
  58 458   0  14  27   0 11  0
  59  61   0  16  28   8  0  0
  60 1500000   0   0   0   0  0  0
  61 41228   0   0   0   0  0  1
  62 524  13   0   0   0  0  0
  63 450   0   1   1   1  0  0
  64 148   2   0   0   2  0  0
  65  79   0   0   0   3  0  0
  66 458   0   4   5   0  1  0
  67  58   0   6   7   8  0  0
  68   4   0   0   0   0  0  0
  69 148   3   0   0   2  0  0
  70  79   0   0   0   3  0  0
  71 458   0   9  10   0  2  0
  72  51   0  11  12   8  0  0
  73  11   0   0   0   0  0  0
  74 148   4   0   0   2  0  0
  75  79   0   0   0   3  0  0
  76 458   0  13  14   0  3  0
  77  61   0  15  16   8  0  0
  78 148   5   0   0   2  0  0
  79  79   0   0   0   3  0  0
  80 458   0  17   4   0  4  0
  81  58   0  18   6   8  0  0
  82   4   0   0   0   0  0  0
  83 148   6   0   0   2  0  0
  84  79   0   0   0   3  0  0
  85 458   0  19   9   0  5  0
  86  51   0  20  11   8  0  0
  87  11   0   0   0   0  0  0
  88 148   7   0   0   2  0  0
  89  79   0   0   0   3  0  0
  90 458   0  21  13   0  6  0
  91  61   0  22  15   8  0  0
  92 148   8   0   0   2  0  0
  93  79   0   0   0   3  0  0
  94 458   0  23  17   0  7  0
  95  58   0  24  18   8  0  0
  96   4   0   0   0   0  0  0
  97 148   9   0   0   2  0  0
  98  79   0   0   0   3  0  0
  99 458   0  25  19   0  8  0
 100  51   0  26  20   8  0  0
 101  11   0   0   0   0  0  0
 102 148  10   0   0   2  0  0
 103  79   0   0   0   3  0  0
 104 458   0  27  21   0  9  0
 105  61   0  28  22   8  0  0
 106 148  11   0   0   2  0  0
 107  79   0   0   0   3  0  0
 108 458   0   5  23   0 10  0
 109  58   0   7  24   8  0  0
 110   4   0   0   0   0  0  0
 111 148   7   0   0   2  0  0
 112  79   0   0   0   3  0  0
 113 458   0  10  25   0  6  0
 114  51   0  12  26   8  0  0
 115  11   0   0   0   0  0  0
 116 148  12   0   0   2  0  0
 117  79   0   0   0   3  0  0
 118 458   0  14  27   0 11  0
 119  61   0  16  28   8  0  0
 120 50000   0   0   0   0  0  0
 121 41228   0   0   0   0  0  1
 122 524  14   0   0   0  0  0
 123 450   0   1   1   1  0  0
 124 148   2   0   0   2  0  0
 125  79   0   0   0   3  0  0
 126 458   0   4   5   0  1  0
 127  58   0   6   7   8  0  0
 128   4   0   0   0   0  0  0
 129 148   3   0   0   2  0  0
 130  79   0   0   0   3  0  0
 131 458   0   9  10   0  2  0
 132  51   0  11  12   8  0  0
 133  11   0   0   0   0  0  0
 134 148   4   0   0   2  0  0
 135  79   0   0   0   3  0  0
 136 458   0  13  14   0  3  0
 137  61   0  15  16   8  0  0
 138 148   5   0   0   2  0  0
 139  79   0   0   0   3  0  0
 140 458   0  17   4   0  4  0
 141  58   0  18   6   8  0  0
 142   4   0   0   0   0  0  0
 143 148   6   0   0   2  0  0
 144  79   0   0   0   3  0  0
 145 458   0  19   9   0  5  0
 146  51   0  20  11   8  0  0
 147  11   0   0   0   0  0  0
 148 148   7   0   0   2  0  0
 149  79   0   0   0   3  0  0
 150 458   0  21  13   0  6  0
 151  61   0  22  15   8  0  0
 152 148   8   0   0   2  0  0
 153  79   0   0   0   3  0  0
 154 458   0  23  17   0  7  0
 155  58   0  24  18   8  0  0
 156   4   0   0   0   0  0  0
 157 148   9   0   0   2  0  0
 158  79   0   0   0   3  0  0
 159 458   0  25  19   0  8  0
 160  51   0  26  20   8  0  0
 161  11   0   0   0   0  0  0
 162 148  10   0   0   2  0  0
 163  79   0   0   0   3  0  0
 164 458   0  27  21   0  9  0
 165  61   0  28  22   8  0  0
 166 148  11   0   0   2  0  0
 167  79   0   0   0   3  0  0
 168 458   0   5  23   0 10  0
 169  58   0   7  24   8  0  0
 170   4   0   0   0   0  0  0
 171 148   7   0   0   2  0  0
 172  79   0   0   0   3  0  0
 173 458   0  10  25   0  6  0
 174  51   0  12  26   8  0  0
 175  11   0   0   0   0  0  0
 176 148  12   0   0   2  0  0
 177  79   0   0   0   3  0  0
 178 458   0  14  27   0 11  0
 179  61   0  16  28   8  0  0
 180 100000   0   0   0   0  0  0
 181 41228   0   0   0   0  0  1
 182 524  15   0   0   0  0  0
 183 450   0   1   1   1  0  0
 184 148   2   0   0   2  0  0
 185  79   0   0   0   3  0  0
 186 458   0   4   5   0  1  0
 187  58   0   6   7   8  0  0
 188   4   0   0   0   0  0  0
 189 148   3   0   0   2  0  0
 190  79   0   0   0   3  0  0
 191 458   0   9  10   0  2  0
 192  51   0  11  12   8  0  0
 193  11   0   0   0   0  0  0
 194 148   4   0   0   2  0  0
 195  79   0   0   0   3  0  0
 196 458   0  13  14   0  3  0
 197  61   0  15  16   8  0  0
 198 148   5   0   0   2  0  0
 199  79   0   0   0   3  0  0
 200 458   0  17   4   0  4  0
 201  58   0  18   6   8  0  0
 202   4   0   0   0   0  0  0
 203 148   6   0   0   2  0  0
 204  79   0   0   0   3  0  0
 205 458   0  19   9   0  5  0
 206  51   0  20  11   8  0  0
 207  11   0   0   0   0  0  0
 208 148   7   0   0   2  0  0
 209  79   0   0   0   3  0  0
 210 458   0  21  13   0  6  0
 211  61   0  22  15   8  0  0
 212 148   8   0   0   2  0  0
 213  79   0   0   0   3  0  0
 214 458   0  23  17   0  7  0
 215  58   0  24  18   8  0  0
 216   4   0   0   0   0  0  0
 217 148   9   0   0   2  0  0
 218  79   0   0   0   3  0  0
 219 458   0  25  19   0  8  0
 220  51   0  26  20   8  0  0
 221  11   0   0   0   0  0  0
 222 148  10   0   0   2  0  0
 223  79   0   0   0   3  0  0
 224 458   0  27  21   0  9  0
 225  61   0  28  22   8  0  0
 226 148  11   0   0   2  0  0
 227  79   0   0   0   3  0  0
 228 458   0   5  23   0 10  0
 229  58   0   7  24   8  0  0
 230   4   0   0   0   0  0  0
 231 148   7   0   0   2  0  0
 232  79   0   0   0   3  0  0
 233 458   0  10  25   0  6  0
 234  51   0  12  26   8  0  0
 235  11   0   0   0   0  0  0
 236 148  12   0   0   2  0  0
 237  79   0   0   0   3  0  0
 238 458   0  14  27   0 11  0
 239  61   0  16  28   8  0  0
 240 200000   0   0   0   0  0  0
 241 41228   0   0   0   0  0  1
 242 524  16   0   0   0  0  0
 243 450   0   1   1   1  0  0
 244 148   2   0   0   2  0  0
 245  79   0   0   0   3  0  0
 246 458   0   4   5   0  1  0
 247  58   0   6   7   8  0  0
 248   4   0   0   0   0  0  0
 249 148   3   0   0   2  0  0
 250  79   0   0   0   3  0  0
 251 458   0   9  10   0  2  0
 252  51   0  11  12   8  0  0
 253  11   0   0   0   0  0  0
 254 148   4   0   0   2  0  0
 255  79   0   0   0   3  0  0
 256 458   0  13  14   0  3  0
 257  61   0  15  16   8  0  0
 258 148   5   0   0   2  0  0
 259  79   0   0   0   3  0  0
 260 458   0  17   4   0  4  0
 261  58   0  18   6   8  0  0
 262   4   0   0   0   0  0  0
 263 148   6   0   0   2  0  0
 264  79   0   0   0   3  0  0
 265 458   0  19   9   0  5  0
 266  51   0  20  11   8  0  0
 267  11   0   0   0   0  0  0
 268 148   7   0   0   2  0  0
 269  79   0   0   0   3  0  0
 270 458   0  21  13   0  6  0
 271  61   0  22  15   8  0  0
 272 148   8   0   0   2  0  0
 273  79   0   0   0   3  0  0
 274 458   0  23  17   0  7  0
 275  58   0  24  18   8  0  0
 276   4   0   0   0   0  0  0
 277 148   9   0   0   2  0  0
 278  79   0   0   0   3  0  0
 279 458   0  25  19   0  8  0
 280  51   0  26  20   8  0  0
 281  11   0   0   0   0  0  0
 282 148  10   0   0   2  0  0
 283  79   0   0   0   3  0  0
 284 458   0  27  21   0  9  0
 285  61   0  28  22   8  0  0
 286 148  11   0   0   2  0  0
 287  79   0   0   0   3  0  0
 288 458   0   5  23   0 10  0
 289  58   0   7  24   8  0  0
 290   4   0   0   0   0  0  0
 291 148   7   0   0   2  0  0
 292  79   0   0   0   3  0  0
 293 458   0  10  25   0  6  0
 294  51   0  12  26   8  0  0
 295  11   0   0   0   0  0  0
 296 148  12   0   0   2  0  0
 297  79   0   0   0   3  0  0
 298 458   0  14  27   0 11  0
 299  61   0  16  28   8  0  0
 300 300000   0   0   0   0  0  0
 301 41228   0   0   0   0  0  1
[RF]
1      157.531 1 2 3 100 -9579.6 0
2      98.7737 4 5 0 240 0 0
3      98.7737 4 5 0 240 0 2.04204
4      98.7737 4 5 0 240 0 6.12611
5      98.7737 4 5 0 240 0 5.96903
6      98.7737 4 5 0 240 0 1.5708
7      98.7737 4 5 0 240 0 5.49779
8      98.7737 4 5 0 240 0 5.18363
9      98.7737 4 5 0 240 0 0.628319
10      98.7737 4 5 0 240 0 4.39823
11      98.7737 4 5 0 240 0 3.92699
12      98.7737 4 5 0 240 0 2.82743
13      157.531 1 2 3 100 -510.912 0
14      157.531 1 2 3 100 -476.425 0
15      157.531 1 2 3 100 -441.939 0
16      157.531 1 2 3 100 -408.73 0
17      157.531 1 2 3 100 -374.243 0
18      157.531 1 2 3 100 -341.034 0
19      157.531 1 2 3 100 -306.547 0
20      157.531 1 2 3 100 -272.061 0
21      157.531 1 2 3 100 -237.574 0
22      157.531 1 2 3 100 -204.365 0
23      157.531 1 2 3 100 -169.878 0
24      157.531 1 2 3 100 -135.392 0
25      157.531 1 2 3 100 -102.182 0
26      157.531 1 2 3 100 -67.6958 0
27      157.531 1 2 3 100 -33.2093 0
28      157.531 1 2 3 100 0 0
29      157.531 1 2 3 100 33.2093 0
30      157.531 1 2 3 100 67.6958 0
31      157.531 1 2 3 100 102.182 0
32      157.531 1 2 3 100 135.392 0
33      157.531 1 2 3 100 169.878 0
34      157.531 1 2 3 100 213.306 0
35      157.531 1 2 3 100 237.574 0
36      157.531 1 2 3 100 272.061 0
37      157.531 1 2 3 100 306.547 0
38      157.531 1 2 3 100 339.756 0
39      157.531 1 2 3 100 374.243 0
40      157.531 1 2 3 100 408.73 0
41      157.531 1 2 3 100 441.939 0
42      157.531 1 2 3 100 476.425 0
43      157.531 1 2 3 100 510.912 0

# Format of arbitrary gradients:
#   time_shape_id of 0 means default timing (stepping with grad_raster starting at 1/2 of grad_raster)
# id amplitude amp_shape_id time_shape_id delay
# ..      Hz/m       ..         ..          us
[GRADIENTS]
4      -857192 6 0 10
5      -885671 7 0 10
6      -833789 8 9 0
7       930474 10 11 0
9      -897455 12 0 10
10      -876145 13 0 10
11      -900288 14 15 0
12       925112 16 17 0
13      -895244 18 0 10
14      -866663 19 0 10
15      -857497 20 21 0
16      -901809 22 23 0
17       885671 7 0 10
18      -930474 24 11 0
19       876145 13 0 10
20      -925112 25 17 0
21       866663 19 0 10
22       901809 26 23 0
23       857192 6 0 10
24       833789 27 9 0
25       897455 12 0 10
26       900288 28 15 0
27       895244 18 0 10
28       857497 29 21 0

# Format of trapezoid gradients:
# id amplitude rise flat fall delay
# ..      Hz/m   us   us   us    us
[TRAP]
 1  1.02182e+06 1000 2500 1000   0
 2        1e+06 240 1000 240   0
 3 -1.26531e+06 300  190 300   0
 8       956522 230    0 230   0

# Format of ADC events:
# id num dwell delay freq phase
# ..  ..    ns    us   Hz   rad
[ADC]
1 456 10000 10 0 0
2 456 10000 10 0 2.04204
3 456 10000 10 0 6.12611
4 456 10000 10 0 5.96903
5 456 10000 10 0 1.5708
6 456 10000 10 0 5.49779
7 456 10000 10 0 5.18363
8 456 10000 10 0 0.628319
9 456 10000 10 0 4.39823
10 456 10000 10 0 3.92699
11 456 10000 10 0 2.82743

# Format of extension lists:
# id type ref next_id
# next_id of 0 terminates the list
# Extension list is followed by extension specifications
[EXTENSIONS]
1 1 1 0

# Extension specification for digital output and input triggers:
# id type channel delay (us) duration (us)
extension TRIGGERS 1
1 2 1 0 412280

# Sequence Shapes
[SHAPES]

shape_id 1
num_samples 2
1
1

shape_id 2
num_samples 2
0
0

shape_id 3
num_samples 2
0
5120

shape_id 4
num_samples 1000
2.46987503e-09
6.68058925e-08
3.09773645e-07
8.51176063e-07
1.81113556e-06
3.30983898e-06
5.46728072e-06
8.4030044e-06
1.22358434e-05
1.70836608e-05
2.30630883e-05
3.0289266e-05
3.88755817e-05
4.89334113e-05
6.05718597e-05
7.38975039e-05
8.90141367e-05
0.000106022514
0.000125020102
0.000146100831
0.000169354849
0.00019486828
0.000222722985
0.000252996333
0.000285760966
0.000321084578
0.000359029698
0.000399653471
0.000443007458
0.000489137428
0.00053808317
0.000589878299
0.000644550081
0.000702119258
0.000762599882
0.000825999158
0.000892317299
0.000961547383
0.00103367522
0.00110867924
0.00118653036
0.0012671919
0.00135061951
0.00143676101
0.00152555643
0.00161693784
0.00171082938
0.00180714716
0.00190579928
0.00200668579
0.00210969867
0.00221472185
0.00232163125
0.00243029475
0.00254057229
0.00265231588
0.0027653697
0.00287957014
0.00299474592
0.00311071815
0.0032273005
0.00334429926
0.00346151355
0.00357873539
0.0036957499
0.00381233551
0.00392826406
0.00404330106
0.0041572059
0.004269732
0.00438062714
0.00448963363
0.00459648859
0.0047009242
0.00480266801
0.00490144318
0.00499696881
0.00508896024
0.00517712934
0.00526118488
0.00534083284
0.00541577675
0.00548571805
0.00555035646
0.00560939035
0.00566251709
0.00570943348
0.00574983612
0.00578342179
0.0058098879
0.00582893286
0.00584025653
0.00584356062
0.00583854914
0.00582492881
0.00580240951
0.00577070472
0.00572953196
0.00567861323
0.00561767546
0.00554645099
0.00546467795
0.0053721008
0.0052684707
0.00515354603
0.00502709278
0.00488888505
0.00473870547
0.00457634565
0.00440160662
0.00421429927
0.0040142448
0.00380127513
0.00357523333
0.00333597405
0.00308336393
0.00281728201
0.0025376201
0.00224428323
0.00193718999
0.00161627293
0.00128147891
0.000932769478
0.000570121184
0.000193525957
0.000197008594
0.000601458861
0.00101978493
0.0014519303
0.00189782161
0.00235736834
0.00283046262
0.00331697897
0.00381677404
0.00432968648
0.0048555367
0.00539412671
0.00594523997
0.00650864125
0.00708407649
0.00767127273
0.00826993798
0.00887976121
0.00950041224
0.0101315417
0.0107727812
0.011423743
0.0120840204
0.0127531875
0.0134307993
0.0141163922
0.0148094834
0.0155095717
0.0162161372
0.0169286416
0.0176465286
0.0183692238
0.019096135
0.0198266528
0.0205601502
0.0212959836
0.0220334927
0.0227720011
0.0235108162
0.0242492302
0.0249865201
0.0257219482
0.0264547626
0.0271841976
0.0279094743
0.028629801
0.0293443737
0.0300523768
0.0307529834
0.0314453563
0.0321286482
0.0328020026
0.033464554
0.0341154294
0.034753748
0.0353786227
0.0359891601
0.036584462
0.0371636255
0.0377257439
0.0382699079
0.0387952058
0.0393007246
0.0397855508
0.0402487713
0.040689474
0.0411067489
0.0414996887
0.0418673902
0.0422089543
0.0425234879
0.042810104
0.0430679231
0.0432960739
0.043493694
0.0436599316
0.0437939455
0.0438949066
0.0439619987
0.0439944195
0.0439913813
0.0439521123
0.0438758574
0.0437618789
0.0436094579
0.043417895
0.0431865109
0.0429146482
0.0426016714
0.0422469684
0.0418499512
0.0414100569
0.0409267486
0.0403995161
0.039827877
0.0392113776
0.0385495937
0.0378421311
0.0370886272
0.036288751
0.0354422045
0.0345487232
0.033608077
0.0326200708
0.0315845454
0.0305013782
0.0293704837
0.0281918146
0.026965362
0.0256911564
0.0243692678
0.0229998071
0.0215829259
0.0201188174
0.0186077169
0.0170499021
0.015445694
0.0137954567
0.0120995983
0.0103585712
0.00857287224
0.00674304311
0.00486967073
0.00295338742
0.00099487113
0.00100515437
0.00304591933
0.00512660788
0.00724635798
0.00940426133
0.0115993634
0.0138306633
0.016097114
0.0183976225
0.0207310494
0.02309621
0.0254918735
0.0279167639
0.03036956
0.0328488958
0.0353533606
0.0378814998
0.0404318151
0.0430027646
0.0455927641
0.0482001867
0.0508233641
0.0534605869
0.0561101051
0.058770129
0.06143883
0.0641143408
0.0667947569
0.0694781371
0.072162504
0.0748458456
0.0775261157
0.0802012349
0.0828690919
0.0855275443
0.0881744196
0.0908075164
0.0934246057
0.0960234316
0.0986017131
0.101157145
0.103687398
0.106190122
0.108662948
0.111103486
0.113509327
0.11587805
0.118207216
0.120494372
0.122737055
0.124932791
0.127079096
0.129173479
0.131213445
0.133196491
0.135120115
0.136981811
0.138779074
0.140509403
0.142170299
0.143759268
0.145273825
0.146711492
0.148069802
0.149346301
0.150538547
0.151644116
0.152660599
0.153585608
0.154416775
0.155151754
0.155788224
0.156323888
0.156756481
0.157083763
0.157303527
0.1574136
0.157411841
0.157296146
0.157064452
0.156714731
0.156244999
0.155653314
0.15493778
0.154096546
0.153127808
0.152029814
0.15080086
0.149439296
0.147943527
0.146312011
0.144543266
0.142635865
0.140588445
0.138399701
0.136068392
0.13359334
0.130973434
0.128207628
0.125294945
0.122234475
0.119025382
0.115666897
0.112158326
0.108499048
0.104688515
0.100726257
0.0966118792
0.0923450631
0.0879255696
0.0833532382
0.0786279878
0.0737498181
0.0687188097
0.0635351248
0.058199008
0.0527107867
0.0470708715
0.0412797567
0.0353380206
0.0292463262
0.0230054207
0.0166161367
0.0100793913
0.00339618737
0.00343238744
0.01040516
0.0175208721
0.0247781803
0.0321756561
0.0397117866
0.0473849741
0.0551935366
0.0631357087
0.0712096412
0.0794134021
0.0877449771
0.09620227
0.104783103
0.113485219
0.12230628
0.13124387
0.140295493
0.149458579
0.158730478
0.168108468
0.177589752
0.187171458
0.196850645
0.206624299
0.216489339
0.226442613
0.236480905
0.246600931
0.256799346
0.267072741
0.277417645
0.287830531
0.298307811
0.308845844
0.319440933
0.330089328
0.340787231
0.351530791
0.362316115
0.373139262
0.383996247
0.394883047
0.405795597
0.416729798
0.427681512
0.438646571
0.449620777
0.4605999
0.471579687
0.482555859
0.493524116
0.504480138
0.515419587
0.52633811
0.537231342
0.548094906
0.55892442
0.569715493
0.580463731
0.59116474
0.601814128
0.612407504
0.622940486
0.633408698
0.643807778
0.654133375
0.664381153
0.674546796
0.684626008
0.694614516
0.704508072
0.714302455
0.723993475
0.733576975
0.74304883
0.752404954
0.761641301
0.770753865
0.779738685
0.788591846
0.797309479
0.80588777
0.814322955
0.822611324
0.830749225
0.838733067
0.846559317
0.854224508
0.861725236
0.869058164
0.876220027
0.883207628
0.890017843
0.896647625
0.903094001
0.909354077
0.915425038
0.921304152
0.926988768
0.932476322
0.937764334
0.942850412
0.947732253
0.952407645
0.956874465
0.961130687
0.965174374
0.969003689
0.972616886
0.976012322
0.979188446
0.982143811
0.984877068
0.987386967
0.989672363
0.991732211
0.993565568
0.995171596
0.996549559
0.997698828
0.998618875
0.999309279
0.999769725
1
1
0.999769725
0.999309279
0.998618875
0.997698828
0.996549559
0.995171596
0.993565568
0.991732211
0.989672363
0.987386967
0.984877068
0.982143811
0.979188446
0.976012322
0.972616886
0.969003689
0.965174374
0.961130687
0.956874465
0.952407645
0.947732253
0.942850412
0.937764334
0.932476322
0.926988768
0.921304152
0.915425038
0.909354077
0.903094001
0.896647625
0.890017843
0.883207628
0.876220027
0.869058164
0.861725236
0.854224508
0.846559317
0.838733067
0.830749225
0.822611324
0.814322955
0.80588777
0.797309479
0.788591846
0.779738685
0.770753865
0.761641301
0.752404954
0.74304883
0.733576975
0.723993475
0.714302455
0.704508072
0.694614516
0.684626008
0.674546796
0.664381153
0.654133375
0.643807778
0.633408698
0.622940486
0.612407504
0.601814128
0.59116474
0.580463731
0.569715493
0.55892442
0.548094906
0.537231342
0.52633811
0.515419587
0.504480138
0.493524116
0.482555859
0.471579687
0.4605999
0.449620777
0.438646571
0.427681512
0.416729798
0.405795597
0.394883047
0.383996247
0.373139262
0.362316115
0.351530791
0.340787231
0.330089328
0.319440933
0.308845844
0.298307811
0.287830531
0.277417645
0.267072741
0.256799346
0.246600931
0.236480905
0.226442613
0.216489339
0.206624299
0.196850645
0.187171458
0.177589752
0.168108468
0.158730478
0.149458579
0.140295493
0.13124387
0.12230628
0.113485219
0.104783103
0.09620227
0.0877449771
0.0794134021
0.0712096412
0.0631357087
0.0551935366
0.0473849741
0.0397117866
0.0321756561
0.0247781803
0.0175208721
0.01040516
0.00343238744
0.00339618737
0.0100793913
0.0166161367
0.0230054207
0.0292463262
0.0353380206
0.0412797567
0.0470708715
0.0527107867
0.058199008
0.0635351248
0.0687188097
0.0737498181
0.0786279878
0.0833532382
0.0879255696
0.0923450631
0.0966118792
0.100726257
0.104688515
0.108499048
0.112158326
0.115666897
0.119025382
0.122234475
0.125294945
0.128207628
0.130973434
0.13359334
0.136068392
0.138399701
0.140588445
0.142635865
0.144543266
0.146312011
0.147943527
0.149439296
0.15080086
0.152029814
0.153127808
0.154096546
0.15493778
0.155653314
0.156244999
0.156714731
0.157064452
0.157296146
0.157411841
0.1574136
0.157303527
0.157083763
0.156756481
0.156323888
0.155788224
0.155151754
0.154416775
0.153585608
0.152660599
0.151644116
0.150538547
0.149346301
0.148069802
0.146711492
0.145273825
0.143759268
0.142170299
0.140509403
0.138779074
0.136981811
0.135120115
0.133196491
0.131213445
0.129173479
0.127079096
0.124932791
0.122737055
0.120494372
0.118207216
0.11587805
0.113509327
0.111103486
0.108662948
0.106190122
0.103687398
0.101157145
0.0986017131
0.0960234316
0.0934246057
0.0908075164
0.0881744196
0.0855275443
0.0828690919
0.0802012349
0.0775261157
0.0748458456
0.072162504
0.0694781371
0.0667947569
0.0641143408
0.06143883
0.058770129
0.0561101051
0.0534605869
0.0508233641
0.0482001867
0.0455927641
0.0430027646
0.0404318151
0.0378814998
0.0353533606
0.0328488958
0.03036956
0.0279167639
0.0254918735
0.02309621
0.0207310494
0.0183976225
0.016097114
0.0138306633
0.0115993634
0.00940426133
0.00724635798
0.00512660788
0.00304591933
0.00100515437
0.00099487113
0.00295338742
0.00486967073
0.00674304311
0.00857287224
0.0103585712
0.0120995983
0.0137954567
0.015445694
0.0170499021
0.0186077169
0.0201188174
0.0215829259
0.0229998071
0.0243692678
0.0256911564
0.026965362
0.0281918146
0.0293704837
0.0305013782
0.0315845454
0.0326200708
0.033608077
0.0345487232
0.0354422045
0.036288751
0.0370886272
0.0378421311
0.0385495937
0.0392113776
0.039827877
0.0403995161
0.0409267486
0.0414100569
0.0418499512
0.0422469684
0.0426016714
0.0429146482
0.0431865109
0.043417895
0.0436094579
0.0437618789
0.0438758574
0.0439521123
0.0439913813
0.0439944195
0.0439619987
0.0438949066
0.0437939455
0.0436599316
0.043493694
0.0432960739
0.0430679231
0.042810104
0.0425234879
0.0422089543
0.0418673902
0.0414996887
0.0411067489
0.040689474
0.0402487713
0.0397855508
0.0393007246
0.0387952058
0.0382699079
0.0377257439
0.0371636255
0.036584462
0.0359891601
0.0353786227
0.034753748
0.0341154294
0.033464554
0.0328020026
0.0321286482
0.0314453563
0.0307529834
0.0300523768
0.0293443737
0.028629801
0.0279094743
0.0271841976
0.0264547626
0.0257219482
0.0249865201
0.0242492302
0.0235108162
0.0227720011
0.0220334927
0.0212959836
0.0205601502
0.0198266528
0.019096135
0.0183692238
0.0176465286
0.0169286416
0.0162161372
0.0155095717
0.0148094834
0.0141163922
0.0134307993
0.0127531875
0.0120840204
0.011423743
0.0107727812
0.0101315417
0.00950041224
0.00887976121
0.00826993798
0.00767127273
0.00708407649
0.00650864125
0.00594523997
0.00539412671
0.0048555367
0.00432968648
0.00381677404
0.00331697897
0.00283046262
0.00235736834
0.00189782161
0.0014519303
0.00101978493
0.000601458861
0.000197008594
0.000193525957
0.000570121184
0.000932769478
0.00128147891
0.00161627293
0.00193718999
0.00224428323
0.0025376201
0.00281728201
0.00308336393
0.00333597405
0.00357523333
0.00380127513
0.0040142448
0.00421429927
0.00440160662
0.00457634565
0.00473870547
0.00488888505
0.00502709278
0.00515354603
0.0052684707
0.0053721008
0.00546467795
0.00554645099
0.00561767546
0.00567861323
0.00572953196
0.00577070472
0.00580240951
0.00582492881
0.00583854914
0.00584356062
0.00584025653
0.00582893286
0.0058098879
0.00578342179
0.00574983612
0.00570943348
0.00566251709
0.00560939035
0.00555035646
0.00548571805
0.00541577675
0.00534083284
0.00526118488
0.00517712934
0.00508896024
0.00499696881
0.00490144318
0.00480266801
0.0047009242
0.00459648859
0.00448963363
0.00438062714
0.004269732
0.0041572059
0.00404330106
0.00392826406
0.00381233551
0.0036957499
0.00357873539
0.00346151355
0.00334429926
0.0032273005
0.00311071815
0.00299474592
0.00287957014
0.0027653697
0.00265231588
0.00254057229
0.00243029475
0.00232163125
0.00221472185
0.00210969867
0.00200668579
0.00190579928
0.00180714716
0.00171082938
0.00161693784
0.00152555643
0.00143676101
0.00135061951
0.0012671919
0.00118653036
0.00110867924
0.00103367522
0.000961547383
0.000892317299
0.000825999158
0.000762599882
0.000702119258
0.000644550081
0.000589878299
0.00053808317
0.000489137428
0.000443007458
0.000399653471
0.000359029698
0.000321084578
0.000285760966
0.000252996333
0.000222722985
0.00019486828
0.000169354849
0.000146100831
0.000125020102
0.000106022514
8.90141367e-05
7.38975039e-05
6.05718597e-05
4.89334113e-05
3.88755817e-05
3.0289266e-05
2.30630883e-05
1.70836608e-05
1.22358434e-05
8.4030044e-06
5.46728072e-06
3.30983898e-06
1.81113556e-06
8.51176063e-07
3.09773645e-07
6.68058925e-08
2.46987503e-09

shape_id 5
num_samples 1000
0.5
0
0
122
-0.5
0
0
122
0.5
0
0
122
-0.5
0
0
247
0.5
0
0
122
-0.5
0
0
122
0.5
0
0
122

shape_id 6
num_samples 457
0.00651860241
0.0462681311
0.0857095252
0.104560179
0.0918788828
0.0608386719
0.0222484068
-0.0206078401
-0.0650348027
-0.108502626
-0.148793657
-0.184095794
-0.213037931
-0.234681625
-0.248484852
-0.254251401
-0.252075642
-0.242288607
-0.225408459
-0.20209653
-0.173119079
-0.139314395
-0.101564703
-0.0607722897
-0.0178393273
0.0263490712
0.070938965
0.115119199
0.158130805
0.199274446
0.237916105
0.273491228
0.305507471
0.333546225
0.357263046
0.376387116
0.390719869
0.400132874
0.404565091
0.404019578
0.398559757
0.3883053
0.373427728
0.354145777
0.330720609
0.303450916
0.272667981
0.238730732
0.202020852
0.162937967
0.12189496
0.0793134359
0.0356193698
-0.00876104019
-0.0534052934
-0.0978982642
-0.141835622
-0.184826983
-0.226498787
-0.266496889
-0.304488868
-0.340166053
-0.373245258
-0.403470241
-0.430612886
-0.454474118
-0.47488455
-0.491704883
-0.50482607
-0.514169238
-0.519685403
-0.521354974
-0.519187072
-0.513218669
-0.503513562
-0.490161204
-0.4732754
-0.452992888
-0.429471809
-0.402890092
-0.373443772
-0.341345232
-0.306821412
-0.270111978
-0.23146747
-0.191147441
-0.149418606
-0.106552995
-0.0628261384
-0.0185152842
0.0261023401
0.0707512138
0.115159148
0.159058845
0.20218938
0.244297608
0.285139484
0.324481289
0.362100775
0.397788202
0.431347282
0.462596025
0.491367479
0.517510374
0.540889657
0.561386932
0.578900795
0.593347076
0.604658975
0.612787113
0.617699483
0.619381319
0.617834876
0.613079124
0.605149376
0.59409683
0.579988049
0.562904377
0.542941286
0.520207685
0.494825158
0.466927176
0.43665826
0.404173104
0.369635683
0.333218321
0.29510075
0.255469147
0.214515166
0.172434962
0.129428215
0.0856971569
0.041445608
-0.00312197577
-0.0478014393
-0.0923898448
-0.136686365
-0.180493149
-0.223616161
-0.265865982
-0.30705858
-0.347016042
-0.385567261
-0.42254859
-0.457804442
-0.491187853
-0.522560996
-0.551795644
-0.578773588
-0.603387004
-0.625538775
-0.645142754
-0.66212399
-0.676418889
-0.687975344
-0.6967528
-0.70272228
-0.705866364
-0.70617912
-0.70366599
-0.698343638
-0.690239747
-0.679392788
-0.665851738
-0.649675775
-0.630933927
-0.609704696
-0.586075648
-0.560142977
-0.532011039
-0.501791872
-0.469604681
-0.435575316
-0.399835726
-0.3625234
-0.3237808
-0.283754778
-0.242595989
-0.2004583
-0.157498193
-0.113874168
-0.0697461482
-0.0252748904
0.0193786039
0.0640536651
0.108590526
0.152830877
0.196618417
0.239799376
0.282223034
0.323742219
0.364213777
0.403499037
0.441464241
0.477980959
0.512926477
0.54618416
0.577643791
0.607201887
0.63476198
0.660234876
0.683538889
0.704600044
0.723352245
0.73973743
0.753705684
0.76521533
0.774232993
0.78073363
0.78470054
0.786125344
0.785007934
0.781356405
0.775186954
0.766523756
0.755398823
0.741851826
0.725929912
0.707687484
0.687185971
0.664493577
0.639685007
0.612841182
0.584048938
0.553400702
0.520994167
0.486931946
0.451321215
0.414273354
0.37590357
0.336330516
0.295675908
0.254064134
0.211621854
0.168477611
0.124761425
0.0806044008
0.0361383265
-0.00850471761
-0.0531927519
-0.0977942835
-0.142178687
-0.18621658
-0.229780187
-0.2727437
-0.314983626
-0.356379125
-0.396812337
-0.436168697
-0.474337236
-0.511210875
-0.546686691
-0.580666185
-0.613055523
-0.643765768
-0.672713091
-0.699818969
-0.725010365
-0.748219891
-0.769385955
-0.788452888
-0.805371054
-0.820096947
-0.832593262
-0.842828953
-0.850779279
-0.856425819
-0.859756482
-0.860765495
-0.859453372
-0.855826871
-0.849898933
-0.841688602
-0.831220935
-0.818526892
-0.803643216
-0.786612293
-0.767482006
-0.746305569
-0.72314135
-0.69805269
-0.671107698
